-0.0000000 -0.0000000 -0.0000000 -0.0000000 -0.0000000 -0.0000000 -0.0000000 -0.0000000 -0.0000000 -0.0000000 -0.0000000 -0.0000000 -0.0000000 -0.0000000 -0.0000000 -0.0000000 -0.0000000 -0.0000000 -0.0000000 -0.0000000 -0.0000000 -0.0000000 -0.0000000 -0.0000000 -0.0000000 -0.0000000 -0.0000000 -0.0000000 -0.0000000 -0.0000000 -0.0000000 -0.0000000 -0.0000000 -0.0000000 -0.0000000 -0.0000000 -0.0000000 -0.0000000 -0.0000000 -0.0000000
-0.0000000 -0.0000000 -0.0000000 -0.0000000 -0.0000000 -0.0000000 -0.0000000 -0.0000000 -0.0000000 -0.0000000 -0.0000000 -0.0000000 -0.0000000 -0.0000000 -0.0000000 -0.0000000 -0.0000000 -0.0000000 -0.0000000 -0.0000000 -0.0000000 -0.0000000 -0.0000000 -0.0000000 -0.0000000 -0.0000000 -0.0000000 -0.0000000 -0.0000000 -0.0000000 -0.0000000 -0.0000000 -0.0000000 -0.0000000 -0.0000000 -0.0000000 -0.0000000 -0.0000000 -0.0000000 -0.0000000
-0.0000003 -0.0000232 -0.0000009 -0.0000194 -0.0000081 -0.0000070 0.0000010 0.0000251 -0.0000075 -0.0000002 0.0000025 0.0000083 -0.0000004 -0.0000024 0.0000013 -0.0000087 -0.0000061 -0.0000026 0.0000012 -0.0000096 0.0000015 0.0000288 -0.0000069 0.0000055 -0.0000022 0.0000384 -0.0000049 0.0000037 -0.0000101 -0.0000150 0.0000007 0.0000479 -0.0000037 -0.0000003 -0.0051510 0.0020287 -0.0000075 0.0000757 -0.0087216 0.0151952
-0.0000006 -0.0000104 -0.0000018 -0.0000146 -0.0000132 0.0000082 -0.0000058 0.0000782 -0.0000002 -0.0000069 -0.0000069 0.0000611 -0.0000113 0.0000102 -0.0000098 0.0000116 -0.0000144 0.0000157 -0.0000069 0.0000031 -0.0000124 0.0000409 -0.0000173 0.0000423 -0.0000066 0.0000962 -0.0000120 0.0000309 -0.0000172 0.0000021 -0.0000034 0.0001297 -0.0000082 0.0000223 -0.0103319 0.0076420 -0.0000081 0.0001651 -0.0012972 -0.0014260
-0.0000006 0.0000249 -0.0000057 0.0000227 -0.0000155 0.0000560 -0.0000154 0.0001890 -0.0000048 0.0000127 -0.0000073 0.0001291 -0.0000269 0.0000621 -0.0000101 0.0000325 -0.0000050 0.0000324 -0.0000079 0.0000223 -0.0000280 0.0000096 -0.0000177 0.0000522 -0.0000100 0.0000972 -0.0000074 0.0000040 -0.0000096 -0.0000107 -0.0000015 0.0000777 -0.0000074 0.0000132 -0.0214608 0.0191289 -0.0000032 0.0000740 -0.0045693 0.0033946
-0.0000006 -0.0000025 -0.0000016 -0.0000010 -0.0000191 0.0000137 -0.0000078 0.0000694 -0.0000067 -0.0000330 -0.0000062 0.0000205 -0.0000156 -0.0000059 -0.0000002 -0.0000154 -0.0000118 -0.0000020 -0.0000051 -0.0000030 -0.0000227 -0.0001069 0.0000020 -0.0000552 -0.0000009 -0.0000583 -0.0000077 -0.0000855 -0.0000098 -0.0000932 0.0000082 -0.0001318 -0.0000023 -0.0000533 -0.0079972 -0.0026300 0.0000116 -0.0001428 -0.0110009 0.0143027
-0.0000010 -0.0000787 0.0000024 -0.0000756 -0.0000133 -0.0000969 -0.0000106 -0.0000894 -0.0000055 -0.0000913 -0.0000020 -0.0001329 -0.0000075 -0.0000920 0.0000016 -0.0000678 -0.0000085 -0.0000729 0.0000063 -0.0000589 -0.0000025 -0.0000986 0.0000074 -0.0001220 0.0000071 -0.0001236 -0.0000107 -0.0000979 -0.0000147 -0.0001333 0.0000063 -0.0001391 -0.0000035 -0.0000730 0.0000848 -0.0157393 0.0000227 -0.0000897 -0.0086928 0.0110846
-0.0000032 -0.0000832 -0.0000033 -0.0000831 -0.0000161 -0.0000944 -0.0000098 -0.0000041 -0.0000065 -0.0000806 -0.0000036 -0.0000798 -0.0000154 -0.0000559 -0.0000016 -0.0000506 -0.0000169 -0.0000616 0.0000020 -0.0000482 -0.0000021 -0.0000199 -0.0000116 -0.0000717 0.0000021 -0.0000321 -0.0000096 -0.0000702 -0.0000143 -0.0001184 0.0000042 -0.0000359 -0.0000038 -0.0000496 0.0004604 -0.0043709 0.0000069 0.0000629 -0.0086824 0.0131771
-0.0000034 -0.0000631 -0.0000050 -0.0000639 -0.0000249 -0.0000539 -0.0000050 0.0000822 -0.0000219 -0.0000476 -0.0000190 0.0000168 -0.0000242 -0.0000011 -0.0000044 -0.0000220 -0.0000258 -0.0000211 -0.0000102 -0.0000110 -0.0000163 0.0000307 -0.0000227 -0.0000002 0.0000006 0.0000801 -0.0000184 -0.0000080 -0.0000239 -0.0000583 -0.0000042 0.0001124 -0.0000066 0.0000005 0.0072145 -0.0166534 -0.0000028 0.0002222 -0.0093187 0.0160785
-0.0000057 -0.0000046 -0.0000083 -0.0000087 -0.0000304 0.0000165 -0.0000274 0.0002346 -0.0000269 -0.0000142 -0.0000176 0.0000897 -0.0000227 0.0000515 -0.0000102 -0.0000032 -0.0000221 0.0000078 -0.0000075 -0.0000028 -0.0000364 -0.0000214 -0.0000260 -0.0000032 -0.0000067 0.0000674 -0.0000277 -0.0000193 -0.0000318 -0.0000589 -0.0000037 0.0000430 -0.0000087 -0.0000125 0.0060642 -0.0168210 -0.0000037 0.0000962 -0.0061562 0.0153629
-0.0000043 -0.0000322 -0.0000051 -0.0000350 -0.0000332 -0.0000427 -0.0000233 0.0000925 -0.0000152 -0.0000726 -0.0000154 -0.0000355 -0.0000083 -0.0000213 -0.0000069 -0.0000496 -0.0000170 -0.0000368 -0.0000083 -0.0000424 -0.0000255 -0.0001244 -0.0000125 -0.0001035 -0.0000002 -0.0001080 -0.0000123 -0.0001176 -0.0000251 -0.0001648 0.0000035 -0.0001783 -0.0000080 -0.0000901 0.0043924 -0.0004437 0.0000007 -0.0001244 0.0065773 -0.0025235
0.0000009 -0.0001113 0.0000012 -0.0001158 -0.0000295 -0.0001469 -0.0000062 -0.0000842 0.0000018 -0.0001403 -0.0000202 -0.0001537 0.0000040 -0.0000956 -0.0000028 -0.0000970 0.0000042 -0.0001189 -0.0000066 -0.0000910 -0.0000043 -0.0000745 -0.0000031 -0.0001499 0.0000106 -0.0001503 -0.0000061 -0.0001246 -0.0000184 -0.0002164 -0.0000011 -0.0001577 -0.0000086 -0.0001203 0.0050220 0.0056683 0.0000102 -0.0000846 0.0149582 -0.0157934
0.0000002 -0.0001085 -0.0000007 -0.0001251 -0.0000276 -0.0001177 -0.0000031 0.0000069 -0.0000053 -0.0001252 -0.0000133 -0.0000885 0.0000090 -0.0000783 -0.0000061 -0.0000915 -0.0000023 -0.0001019 -0.0000131 -0.0000845 -0.0000108 -0.0000061 -0.0000160 -0.0001036 0.0000016 -0.0000465 -0.0000147 -0.0000769 -0.0000266 -0.0001948 -0.0000012 -0.0000358 -0.0000117 -0.0001011 0.0039163 -0.0012375 0.0000037 0.0000283 0.0078795 -0.0033562
-0.0000014 -0.0000817 -0.0000076 -0.0000987 -0.0000164 -0.0000430 -0.0000070 0.0000700 -0.0000225 -0.0000949 -0.0000106 0.0000325 -0.0000131 -0.0000238 -0.0000146 -0.0000530 -0.0000151 -0.0000408 -0.0000143 -0.0000585 -0.0000288 0.0000348 -0.0000175 -0.0000286 -0.0000044 0.0000807 -0.0000177 0.0000038 -0.0000423 -0.0001429 -0.0000039 0.0001303 -0.0000196 -0.0000491 0.0000196 0.0013760 -0.0000059 0.0001819 -0.0017472 0.0090075
-0.0000033 -0.0000191 -0.0000129 -0.0000355 -0.0000200 0.0000628 -0.0000258 0.0001788 -0.0000321 -0.0000617 -0.0000145 0.0001511 -0.0000168 0.0000149 -0.0000170 -0.0000306 -0.0000106 -0.0000151 -0.0000174 -0.0000516 -0.0000479 -0.0000259 -0.0000199 -0.0000194 -0.0000127 0.0000611 -0.0000193 0.0000013 -0.0000515 -0.0001587 -0.0000077 0.0000596 -0.0000214 -0.0000699 -0.0061428 0.0080283 -0.0000061 0.0000388 -0.0015844 0.0006978
-0.0000042 -0.0000424 -0.0000041 -0.0000555 -0.0000332 0.0000038 -0.0000218 0.0000187 -0.0000260 -0.0000983 -0.0000141 0.0000319 -0.0000195 -0.0000520 -0.0000055 -0.0000679 -0.0000094 -0.0000566 -0.0000103 -0.0001100 -0.0000332 -0.0001163 -0.0000164 -0.0000967 -0.0000117 -0.0001105 -0.0000109 -0.0000900 -0.0000486 -0.0002590 -0.0000046 -0.0001770 -0.0000194 -0.0001550 -0.0026233 0.0050200 -0.0000025 -0.0001850 0.0004257 0.0007323
-0.0000007 -0.0001246 0.0000100 -0.0001360 -0.0000335 -0.0001011 -0.0000224 -0.0001691 -0.0000194 -0.0001479 -0.0000076 -0.0000775 -0.0000238 -0.0001091 -0.0000005 -0.0000964 0.0000065 -0.0001163 -0.0000015 -0.0001743 -0.0000003 -0.0000258 -0.0000009 -0.0001186 -0.0000032 -0.0001411 -0.0000042 -0.0000968 -0.0000440 -0.0003143 -0.0000031 -0.0001506 -0.0000245 -0.0001929 0.0024867 0.0028687 0.0000051 -0.0001408 0.0062252 -0.0045962
-0.0000022 -0.0001333 0.0000064 -0.0001486 -0.0000350 -0.0000520 -0.0000355 -0.0000449 -0.0000139 -0.0001219 -0.0000003 0.0000058 -0.0000124 -0.0000750 -0.0000013 -0.0000893 0.0000115 -0.0001047 -0.0000027 -0.0001528 0.0000104 0.0001414 0.0000034 -0.0000477 -0.0000060 -0.0000131 -0.0000055 -0.0000341 -0.0000410 -0.0002701 0.0000031 0.0000147 -0.0000261 -0.0001764 0.0062322 -0.0114091 0.0000012 0.0000009 0.0081924 -0.0086768
-0.0000044 -0.0001092 -0.0000025 -0.0001111 -0.0000385 0.0000228 -0.0000195 0.0000844 -0.0000055 -0.0000509 -0.0000066 0.0001136 -0.0000032 -0.0000037 -0.0000032 -0.0000583 -0.0000117 -0.0000333 -0.0000030 -0.0000642 0.0000046 0.0002586 -0.0000042 0.0000527 -0.0000021 0.0001513 -0.0000099 0.0000467 -0.0000378 -0.0001624 0.0000058 0.0002186 -0.0000232 -0.0001138 0.0070182 -0.0176869 -0.0000057 0.0001973 0.0050346 -0.0028718
-0.0000048 -0.0000452 -0.0000040 -0.0000317 -0.0000428 0.0001141 -0.0000190 0.0002741 -0.0000260 0.0000351 -0.0000139 0.0002374 -0.0000139 0.0000862 -0.0000120 -0.0000068 -0.0000196 0.0000055 -0.0000074 0.0000254 -0.0000270 0.0001921 -0.0000230 0.0000728 -0.0000071 0.0001944 -0.0000215 0.0000080 -0.0000422 -0.0001791 0.0000034 0.0002140 -0.0000173 -0.0001179 -0.0111800 0.0158500 0.0000021 0.0000555 0.0004531 0.0021039
-0.0000134 -0.0000785 -0.0000025 -0.0000498 -0.0000409 0.0000462 -0.0000052 0.0001530 -0.0000379 -0.0000179 -0.0000115 0.0000853 -0.0000198 -0.0000025 -0.0000009 -0.0000385 -0.0000221 -0.0000681 0.0000178 0.0000986 -0.0000398 0.0000327 -0.0000351 -0.0000494 -0.0000060 0.0000444 -0.0000185 -0.0001349 -0.0000326 -0.0002655 0.0000233 -0.0000223 -0.0000064 -0.0001773 -0.0048653 0.0163341 0.0000075 -0.0002142 0.0064512 -0.0041625
-0.0000215 -0.0001722 -0.0000006 -0.0001320 -0.0000372 -0.0000880 0.0000113 -0.0000610 -0.0000289 -0.0001276 -0.0000080 -0.0000789 -0.0000156 -0.0001240 0.0000143 -0.0001021 -0.0000117 -0.0001623 0.0000379 0.0001083 -0.0000292 -0.0000133 -0.0000297 -0.0001655 0.0000051 -0.0000284 -0.0000118 -0.0001827 -0.0000282 -0.0003306 0.0000398 -0.0000456 -0.0000050 -0.0002011 0.0025470 0.0102015 0.0000128 -0.0001884 0.0056984 -0.0171061
-0.0000215 -0.0001793 -0.0000054 -0.0001558 -0.0000350 -0.0000441 0.0000038 0.0000302 -0.0000273 -0.0001705 0.0000069 0.0000127 -0.0000204 -0.0001167 0.0000007 -0.0000909 -0.0000108 -0.0001290 0.0000271 0.0000597 -0.0000422 -0.0000001 -0.0000341 -0.0001570 0.0000050 0.0000594 -0.0000188 -0.0001358 -0.0000477 -0.0004111 0.0000448 0.0001315 -0.0000086 -0.0002001 -0.0037895 0.0084814 0.0000088 -0.0000190 -0.0127632 -0.0017041
-0.0000195 -0.0001414 -0.0000141 -0.0001414 -0.0000311 0.0000544 0.0000034 0.0001561 -0.0000382 -0.0001334 0.0000147 0.0001398 -0.0000386 -0.0000335 -0.0000080 -0.0000415 -0.0000316 -0.0000437 0.0000198 0.0001070 -0.0000541 0.0000641 -0.0000408 -0.0000873 0.0000054 0.0001904 -0.0000206 -0.0000433 -0.0000527 -0.0003397 0.0000472 0.0003270 -0.0000050 -0.0001316 0.0158725 -0.0271685 -0.0000095 0.0002008 -0.0099389 -0.0030261
-0.0000242 -0.0000691 -0.0000171 -0.0000690 -0.0000375 0.0001588 -0.0000077 0.0003261 -0.0000505 -0.0000141 0.0000071 0.0002986 -0.0000679 0.0000970 0.0000036 0.0000348 -0.0000208 0.0000096 0.0000212 0.0002390 -0.0000704 0.0001144 -0.0000398 -0.0000326 0.0000006 0.0002978 -0.0000137 -0.0000086 -0.0000432 -0.0002566 0.0000453 0.0003724 0.0000017 -0.0000909 0.0170128 -0.0201156 -0.0000046 0.0001227 -0.0059718 -0.0065455
-0.0000271 -0.0000783 -0.0000114 -0.0000644 -0.0000414 0.0001031 -0.0000152 0.0002197 -0.0000457 -0.0000418 0.0000115 0.0001847 -0.0000664 0.0000259 0.0000171 0.0000136 -0.0000179 -0.0000348 0.0000295 0.0002603 -0.0000766 0.0000100 -0.0000376 -0.0001137 -0.0000021 0.0001777 0.0000024 -0.0000919 -0.0000321 -0.0003080 0.0000571 0.0001816 0.0000035 -0.0001455 -0.0007360 0.0068646 0.0000089 -0.0000774 -0.0009004 -0.0048293
-0.0000182 -0.0001559 -0.0000033 -0.0001339 -0.0000415 -0.0000282 0.0000075 0.0000179 -0.0000277 -0.0000912 0.0000181 0.0000187 -0.0000383 -0.0000633 0.0000282 -0.0000495 -0.0000095 -0.0001200 0.0000442 0.0002186 -0.0000480 -0.0000308 -0.0000314 -0.0002161 0.0000126 0.0000508 0.0000104 -0.0001289 -0.0000271 -0.0003391 0.0000649 0.0001036 0.0000028 -0.0001743 -0.0084623 0.0076788 0.0000240 -0.0000442 0.0033728 0.0007898
-0.0000159 -0.0001640 -0.0000006 -0.0001455 -0.0000433 -0.0000531 0.0000229 0.0000813 -0.0000123 -0.0000424 0.0000261 0.0000597 -0.0000225 -0.0000185 0.0000271 -0.0000303 0.0000007 -0.0001180 0.0000448 0.0002478 -0.0000336 0.0000714 -0.0000350 -0.0001931 0.0000166 0.0001343 0.0000076 -0.0000628 -0.0000270 -0.0002982 0.0000634 0.0002161 0.0000070 -0.0001527 0.0051648 -0.0201323 0.0000337 0.0000983 0.0077878 -0.0097785
-0.0000148 -0.0001274 -0.0000018 -0.0001119 -0.0000441 -0.0000202 0.0000310 0.0001798 -0.0000022 -0.0000044 0.0000346 0.0001337 -0.0000206 0.0000518 0.0000148 0.0000072 -0.0000248 -0.0000314 0.0000358 0.0002729 -0.0000445 0.0001575 -0.0000424 -0.0001242 0.0000136 0.0002608 0.0000119 0.0000275 -0.0000347 -0.0002231 0.0000613 0.0003659 0.0000072 -0.0001029 -0.0072739 -0.0013413 0.0000264 0.0002994 0.0059416 -0.0029079
-0.0000098 -0.0000709 -0.0000030 -0.0000526 -0.0000446 0.0000676 0.0000278 0.0003375 -0.0000173 0.0000961 0.0000305 0.0002743 -0.0000213 0.0001834 0.0000132 0.0000535 -0.0000209 0.0000407 0.0000421 0.0003308 -0.0000552 0.0001885 -0.0000451 -0.0000660 0.0000109 0.0003537 0.0000119 0.0000747 -0.0000251 -0.0001601 0.0000573 0.0003916 0.0000102 -0.0000820 -0.0151728 0.0058679 0.0000371 0.0002116 -0.0020104 0.0045565
-0.0000096 -0.0000918 0.0000055 -0.0000562 -0.0000434 -0.0000116 0.0000233 0.0002468 -0.0000112 0.0000808 0.0000425 0.0001359 0.0000131 0.0001366 0.0000367 0.0000151 0.0000108 -0.0000316 0.0000642 0.0003721 -0.0000430 0.0000932 -0.0000396 -0.0001541 0.0000175 0.0002202 0.0000282 0.0000041 -0.0000029 -0.0001847 0.0000650 0.0001803 0.0000171 -0.0001355 -0.0138200 0.0101981 0.0000420 -0.0000281 0.0031377 -0.0294631
-0.0000117 -0.0001673 0.0000178 -0.0001121 -0.0000459 -0.0001660 0.0000507 0.0000397 0.0000132 0.0000074 0.0000517 -0.0000764 0.0000412 0.0000407 0.0000528 -0.0000308 0.0000080 -0.0001074 0.0000806 0.0004023 -0.0000090 0.0000526 -0.0000325 -0.0002840 0.0000348 0.0001076 0.0000485 -0.0000554 -0.0000032 -0.0002237 0.0000670 0.0000993 0.0000173 -0.0001835 -0.0207671 0.0315754 0.0000364 -0.0000290 0.0107594 -0.0184067
-0.0000139 -0.0001806 0.0000196 -0.0001163 -0.0000508 -0.0001801 0.0000641 0.0000720 0.0000177 0.0000228 0.0000487 -0.0000618 0.0000381 0.0000753 0.0000544 -0.0000036 0.0000022 -0.0001268 0.0000828 0.0004643 -0.0000088 0.0001084 -0.0000493 -0.0003059 0.0000333 0.0002132 0.0000467 -0.0000218 -0.0000090 -0.0002189 0.0000586 0.0002196 0.0000110 -0.0001925 -0.0057135 0.0186947 0.0000342 0.0000684 0.0125202 -0.0200715
-0.0000170 -0.0001551 0.0000157 -0.0000888 -0.0000590 -0.0001551 0.0000774 0.0001312 0.0000146 0.0000566 0.0000475 -0.0000057 0.0000394 0.0000955 0.0000490 0.0000338 -0.0000102 -0.0000927 0.0000816 0.0005015 -0.0000275 0.0001630 -0.0000662 -0.0002754 0.0000217 0.0003428 0.0000421 0.0000431 -0.0000184 -0.0001934 0.0000599 0.0003460 0.0000018 -0.0001652 0.0080667 -0.0064794 0.0000159 0.0002207 0.0039560 -0.0101250
-0.0000176 -0.0000954 0.0000153 -0.0000289 -0.0000678 -0.0001015 0.0000809 0.0002347 0.0000125 0.0001327 0.0000369 0.0001220 0.0000322 0.0001808 0.0000466 0.0000908 -0.0000166 -0.0000164 0.0000689 0.0005573 -0.0000365 0.0001664 -0.0000739 -0.0002552 0.0000164 0.0004161 0.0000388 0.0000743 -0.0000325 -0.0001736 0.0000593 0.0003449 0.0000023 -0.0001696 0.0007580 -0.0003884 0.0000279 0.0000849 0.0038087 -0.0093509
-0.0000147 -0.0001113 0.0000220 -0.0000378 -0.0000726 -0.0001717 0.0000659 0.0001064 0.0000309 0.0000813 0.0000431 -0.0000165 0.0000419 0.0001285 0.0000620 0.0000530 -0.0000023 -0.0000799 0.0000691 0.0005201 -0.0000316 0.0000164 -0.0000738 -0.0003704 0.0000159 0.0002380 0.0000434 -0.0000071 -0.0000279 -0.0002774 0.0000593 0.0001193 0.0000065 -0.0002565 -0.0264601 0.0261515 0.0000440 -0.0001877 0.0051810 -0.0043632
-0.0000077 -0.0001986 0.0000287 -0.0001282 -0.0000627 -0.0003166 0.0000835 -0.0001463 0.0000429 -0.0000068 0.0000598 -0.0002359 0.0000584 0.0000343 0.0000699 -0.0000328 -0.0000150 -0.0001339 0.0000658 0.0004273 -0.0000102 -0.0000669 -0.0000758 -0.0004692 0.0000212 0.0000554 0.0000515 -0.0000551 -0.0000255 -0.0003844 0.0000625 0.0000018 0.0000024 -0.0003021 -0.0121583 0.0086482 0.0000418 -0.0001879 -0.0021296 0.0089648
0.0000021 -0.0002199 0.0000315 -0.0001668 -0.0000485 -0.0003322 0.0000892 -0.0001452 0.0000427 -0.0000087 0.0000652 -0.0002154 0.0000630 0.0000671 0.0000671 -0.0000494 -0.0000042 -0.0001168 0.0000633 0.0003901 -0.0000158 -0.0000466 -0.0000839 -0.0004470 0.0000176 0.0000878 0.0000586 -0.0000032 -0.0000310 -0.0003668 0.0000569 0.0000979 0.0000055 -0.0002704 0.0154469 -0.0340497 0.0000439 -0.0000678 -0.0039961 0.0026364
0.0000091 -0.0001801 0.0000321 -0.0001360 -0.0000412 -0.0002764 0.0000786 -0.0000500 0.0000447 0.0000136 0.0000690 -0.0001410 0.0000727 0.0001232 0.0000696 -0.0000304 0.0000089 -0.0000651 0.0000636 0.0004005 -0.0000352 -0.0000265 -0.0000831 -0.0003658 0.0000078 0.0001819 0.0000609 0.0000888 -0.0000364 -0.0002874 0.0000509 0.0002398 0.0000109 -0.0002020 0.0109457 -0.0313670 0.0000376 0.0001431 0.0022317 -0.0096700
0.0000128 -0.0000956 0.0000319 -0.0000559 -0.0000365 -0.0001864 0.0000784 0.0000824 0.0000448 0.0000941 0.0000626 0.0000039 0.0000697 0.0002636 0.0000679 0.0000360 -0.0000170 0.0000610 0.0000568 0.0004591 -0.0000485 0.0000186 -0.0000819 -0.0002587 0.0000046 0.0003044 0.0000542 0.0001867 -0.0000532 -0.0001866 0.0000413 0.0003512 0.0000080 -0.0001401 0.0114575 -0.0150425 0.0000434 0.0001178 -0.0084234 -0.0046625
0.0000155 -0.0000777 0.0000378 -0.0000431 -0.0000367 -0.0002021 0.0000616 -0.0000061 0.0000458 0.0000448 0.0000657 -0.0000916 0.0000804 0.0002044 0.0000670 0.0000203 -0.0000074 0.0000369 0.0000571 0.0004467 -0.0000543 -0.0001286 -0.0000757 -0.0003144 0.0000006 0.0001520 0.0000626 0.0001207 -0.0000446 -0.0002393 0.0000436 0.0001453 0.0000085 -0.0001792 0.0070690 0.0024185 0.0000527 -0.0001366 -0.0171584 0.0191125
0.0000215 -0.0001507 0.0000447 -0.0001158 -0.0000247 -0.0002962 0.0000699 -0.0002490 0.0000560 -0.0000675 0.0000870 -0.0003011 0.0000839 0.0000690 0.0000707 -0.0000620 0.0000196 -0.0000540 0.0000646 0.0003618 -0.0000338 -0.0002605 -0.0000670 -0.0004037 0.0000051 -0.0000547 0.0000773 0.0000312 -0.0000293 -0.0003342 0.0000612 -0.0000644 0.0000106 -0.0002254 -0.0035025 0.0162641 0.0000441 -0.0001768 -0.0060199 0.0088645
0.0000254 -0.0001781 0.0000473 -0.0001466 -0.0000135 -0.0003241 0.0000799 -0.0002730 0.0000602 -0.0000737 0.0000878 -0.0002970 0.0000728 0.0000902 0.0000681 -0.0000696 0.0000148 -0.0000533 0.0000648 0.0003443 -0.0000204 -0.0002374 -0.0000614 -0.0003943 0.0000132 -0.0000215 0.0000761 0.0000706 -0.0000253 -0.0003098 0.0000614 0.0000216 0.0000075 -0.0002004 -0.0008106 0.0111543 0.0000375 -0.0000718 0.0119972 -0.0378633
0.0000264 -0.0001391 0.0000467 -0.0001107 -0.0000266 -0.0002857 0.0000677 -0.0001684 0.0000576 -0.0000403 0.0000862 -0.0002316 0.0000801 0.0001296 0.0000720 -0.0000358 0.0000025 -0.0000210 0.0000542 0.0003820 -0.0000378 -0.0002203 -0.0000615 -0.0003505 0.0000094 0.0000856 0.0000726 0.0001474 -0.0000362 -0.0002527 0.0000545 0.0001657 0.0000006 -0.0001616 -0.0032886 -0.0027897 0.0000157 0.0000823 0.0011627 0.0031096
0.0000296 -0.0000625 0.0000484 -0.0000304 -0.0000400 -0.0002142 0.0000714 -0.0000527 0.0000491 0.0000494 0.0000747 -0.0001226 0.0000715 0.0002612 0.0000721 0.0000169 -0.0000102 0.0000620 0.0000524 0.0004115 -0.0000620 -0.0001682 -0.0000682 -0.0002757 -0.0000020 0.0002073 0.0000723 0.0002991 -0.0000588 -0.0001958 0.0000381 0.0003262 -0.0000059 -0.0001039 -0.0059623 0.0077421 -0.0000307 0.0001885 0.0075886 0.0058727
0.0000390 0.0000137 0.0000569 0.0000518 -0.0000462 -0.0002059 0.0000512 -0.0000519 0.0000492 0.0000387 0.0000676 -0.0001851 0.0000799 0.0002635 0.0000663 0.0000059 0.0000120 0.0000475 0.0000506 0.0003917 -0.0000793 -0.0003131 -0.0000742 -0.0003325 -0.0000144 0.0000715 0.0000780 0.0003082 -0.0000636 -0.0002356 0.0000199 0.0001507 -0.0000004 -0.0001202 -0.0073449 0.0177954 -0.0000544 -0.0000753 0.0100184 0.0015702
0.0000412 -0.0000083 0.0000641 0.0000266 -0.0000372 -0.0002910 0.0000389 -0.0002194 0.0000529 -0.0001030 0.0000877 -0.0003611 0.0000953 0.0001108 0.0000613 -0.0000512 0.0000073 0.0000369 0.0000423 0.0003489 -0.0000821 -0.0004674 -0.0000682 -0.0003868 -0.0000286 -0.0001409 0.0000911 0.0002236 -0.0000583 -0.0002940 0.0000162 -0.0001025 0.0000097 -0.0001302 0.0082439 -0.0062178 -0.0000635 -0.0002805 0.0040357 0.0016724
0.0000432 -0.0000444 0.0000605 -0.0000235 -0.0000281 -0.0003061 0.0000504 -0.0002640 0.0000508 -0.0001020 0.0000867 -0.0003269 0.0000861 0.0001515 0.0000583 -0.0000354 -0.0000014 0.0000749 0.0000375 0.0003479 -0.0000705 -0.0004001 -0.0000563 -0.0003127 -0.0000213 -0.0001197 0.0000879 0.0002467 -0.0000691 -0.0002704 0.0000124 -0.0000456 0.0000093 -0.0000785 0.0141204 -0.0115582 -0.0000589 -0.0001773 0.0017040 -0.0044842
0.0000477 -0.0000119 0.0000554 0.0000059 -0.0000240 -0.0002501 0.0000509 -0.0001548 0.0000509 -0.0000183 0.0000880 -0.0002192 0.0000865 0.0002336 0.0000641 0.0000143 0.0000178 0.0000899 0.0000291 0.0003402 -0.0000663 -0.0002964 -0.0000607 -0.0002248 -0.0000170 -0.0000055 0.0000828 0.0002917 -0.0000871 -0.0002801 0.0000099 0.0000818 0.0000055 -0.0000505 0.0004948 0.0119947 -0.0000596 -0.0000442 -0.0048001 0.0076258
0.0000492 0.0000416 0.0000541 0.0000630 -0.0000188 -0.0001831 0.0000539 -0.0000673 0.0000485 0.0000257 0.0000901 -0.0000979 0.0000835 0.0002697 0.0000588 0.0000626 -0.0000011 0.0001788 0.0000161 0.0003164 -0.0000656 -0.0001973 -0.0000557 -0.0001177 -0.0000248 0.0001120 0.0000805 0.0003970 -0.0001017 -0.0002742 0.0000098 0.0002376 0.0000001 0.0000254 -0.0070598 0.0201653 -0.0000726 0.0001269 -0.0065625 0.0090169
0.0000601 0.0001254 0.0000542 0.0001423 -0.0000134 -0.0000853 0.0000459 0.0000365 0.0000377 0.0000686 0.0000831 0.0000027 0.0000731 0.0003271 0.0000408 0.0000912 0.0000011 0.0002325 0.0000081 0.0002751 -0.0000612 -0.0002501 -0.0000337 -0.0001108 -0.0000196 0.0000392 0.0000679 0.0004125 -0.0001228 -0.0002892 0.0000119 0.0001201 0.0000009 0.0000467 -0.0042777 0.0096470 -0.0000624 -0.0000450 -0.0117438 0.0101966
0.0000734 0.0001188 0.0000605 0.0001226 0.0000098 -0.0001024 0.0000291 -0.0000947 0.0000395 -0.0000016 0.0001031 -0.0001109 0.0000788 0.0002762 0.0000340 0.0000392 -0.0000019 0.0002306 -0.0000059 0.0001563 -0.0000539 -0.0003480 -0.0000246 -0.0001544 -0.0000190 -0.0001500 0.0000652 0.0003394 -0.0001318 -0.0003832 0.0000184 -0.0001119 0.0000070 0.0000210 0.0075884 -0.0119516 -0.0000510 -0.0002423 -0.0000870 -0.0005918
0.0000889 0.0000698 0.0000652 0.0000690 0.0000362 -0.0001231 0.0000308 -0.0002425 0.0000439 -0.0000336 0.0001123 -0.0001708 0.0001013 0.0002483 0.0000300 0.0000152 -0.0000153 0.0002506 -0.0000136 0.0000584 -0.0000319 -0.0002729 -0.0000119 -0.0001098 -0.0000125 -0.0001727 0.0000638 0.0003555 -0.0001257 -0.0003908 0.0000190 -0.0000822 0.0000131 0.0000633 0.0121866 -0.0233726 -0.0000449 -0.0001409 0.0030772 -0.0057577
0.0000983 0.0000948 0.0000661 0.0001040 0.0000440 -0.0000349 0.0000257 -0.0001174 0.0000433 0.0000578 0.0001067 -0.0000715 0.0000999 0.0003256 0.0000271 0.0000691 0.0000043 0.0002819 -0.0000073 0.0000960 -0.0000161 -0.0001136 -0.0000063 -0.0000135 -0.0000092 -0.0000626 0.0000600 0.0003985 -0.0001139 -0.0002656 0.0000149 0.0000540 0.0000232 0.0001491 0.0011226 -0.0000038 -0.0000396 0.0000085 -0.0060061 -0.0094723
0.0000909 0.0001588 0.0000613 0.0001819 0.0000482 0.0000760 0.0000269 0.0000318 0.0000420 0.0001490 0.0001086 0.0000415 0.0000884 0.0003934 0.0000270 0.0001433 -0.0000101 0.0003519 0.0000002 0.0002035 -0.0000207 0.0000457 -0.0000110 0.0000973 -0.0000129 0.0001258 0.0000519 0.0004590 -0.0001007 -0.0000947 0.0000160 0.0002503 0.0000353 0.0002577 -0.0053850 0.0111962 -0.0000480 0.0002375 -0.0073237 -0.0054506
0.0000841 0.0002478 0.0000597 0.0002851 0.0000481 0.0001964 0.0000272 0.0001522 0.0000298 0.0002243 0.0000996 0.0001394 0.0000667 0.0004397 0.0000176 0.0002003 -0.0000385 0.0003855 0.0000066 0.0002698 -0.0000263 0.0000026 -0.0000199 0.0000929 -0.0000089 0.0001224 0.0000392 0.0004230 -0.0000958 -0.0000130 0.0000191 0.0001892 0.0000420 0.0002872 -0.0002091 -0.0068551 -0.0000374 0.0001223 0.0075904 -0.0103616
0.0000826 0.0002264 0.0000678 0.0002756 0.0000503 0.0001657 0.0000082 0.0000409 0.0000246 0.0001763 0.0001015 0.0000255 0.0000455 0.0003528 0.0000196 0.0001724 -0.0000279 0.0002909 0.0000166 0.0002601 -0.0000288 -0.0001322 -0.0000272 -0.0000035 -0.0000050 -0.0000401 0.0000386 0.0002941 -0.0000915 -0.0000208 0.0000231 -0.0000158 0.0000462 0.0002499 0.0103540 -0.0156434 -0.0000235 -0.0000942 -0.0005947 0.0120495
0.0000777 0.0001612 0.0000705 0.0002235 0.0000593 0.0001144 0.0000119 -0.0000916 0.0000081 0.0001336 0.0001061 -0.0000539 0.0000468 0.0002668 0.0000294 0.0001477 -0.0000230 0.0002373 0.0000212 0.0002552 -0.0000271 -0.0001283 -0.0000242 -0.0000331 -0.0000004 -0.0000403 0.0000383 0.0002750 -0.0000807 0.0000014 0.0000258 0.0000288 0.0000491 0.0002616 0.0118651 -0.0187126 -0.0000235 -0.0000153 -0.0054763 0.0231522
0.0000735 0.0001753 0.0000664 0.0002474 0.0000548 0.0001921 0.0000095 0.0000167 0.0000102 0.0001640 0.0001027 0.0000475 0.0000536 0.0003127 0.0000259 0.0001810 -0.0000208 0.0002665 0.0000251 0.0003088 -0.0000311 -0.0000664 -0.0000306 0.0000354 -0.0000035 0.0000777 0.0000306 0.0003503 -0.0000726 0.0000904 0.0000238 0.0001998 0.0000444 0.0003227 0.0152332 -0.0293820 -0.0000278 0.0001262 -0.0035676 0.0142500
0.0000664 0.0002051 0.0000610 0.0002941 0.0000515 0.0003067 -0.0000038 0.0001773 0.0000221 0.0002087 0.0001094 0.0001790 0.0000482 0.0004052 0.0000205 0.0002334 -0.0000127 0.0003334 0.0000336 0.0004017 -0.0000502 0.0000433 -0.0000394 0.0001661 -0.0000158 0.0002444 0.0000241 0.0004645 -0.0000756 0.0002257 0.0000205 0.0004262 0.0000431 0.0004087 0.0091787 -0.0052355 -0.0000511 0.0003525 -0.0052063 0.0072619
0.0000611 0.0002637 0.0000571 0.0003744 0.0000532 0.0004594 -0.0000078 0.0003181 0.0000152 0.0002755 0.0001084 0.0003143 0.0000382 0.0004832 0.0000252 0.0002758 -0.0000140 0.0004000 0.0000384 0.0004621 -0.0000505 0.0000135 -0.0000324 0.0001806 -0.0000142 0.0002195 0.0000265 0.0004530 -0.0000697 0.0002495 0.0000259 0.0003772 0.0000481 0.0004190 0.0021965 0.0044330 -0.0000554 0.0002402 0.0094600 -0.0108213
0.0000613 0.0002421 0.0000609 0.0003578 0.0000562 0.0004716 -0.0000253 0.0002185 0.0000219 0.0002195 0.0001147 0.0002228 0.0000447 0.0004005 0.0000326 0.0002484 0.0000094 0.0003515 0.0000486 0.0004282 -0.0000423 -0.0001150 -0.0000357 0.0001064 -0.0000098 0.0000561 0.0000329 0.0003548 -0.0000673 0.0001998 0.0000348 0.0001746 0.0000542 0.0003787 0.0015999 0.0017330 -0.0000494 0.0000391 0.0141404 -0.0233853
0.0000641 0.0001870 0.0000658 0.0003006 0.0000665 0.0003828 -0.0000226 0.0000942 0.0000209 0.0001683 0.0001274 0.0001231 0.0000542 0.0003167 0.0000315 0.0002348 0.0000147 0.0003235 0.0000535 0.0003927 -0.0000412 -0.0000970 -0.0000375 0.0000829 -0.0000022 0.0000469 0.0000378 0.0003403 -0.0000615 0.0001893 0.0000446 0.0001977 0.0000590 0.0003861 0.0049288 -0.0083819 -0.0000413 0.0001234 0.0013009 -0.0053672
0.0000638 0.0002077 0.0000657 0.0003285 0.0000711 0.0003832 0.0000097 0.0001860 0.0000210 0.0002224 0.0001260 0.0002150 0.0000579 0.0003857 0.0000343 0.0002865 0.0000004 0.0003684 0.0000603 0.0004424 -0.0000318 0.0000056 -0.0000222 0.0001041 0.0000050 0.0001349 0.0000369 0.0004169 -0.0000504 0.0002715 0.0000426 0.0003343 0.0000623 0.0004294 0.0031533 -0.0003158 -0.0000295 0.0002375 -0.0127927 0.0137587
0.0000614 0.0002537 0.0000683 0.0003908 0.0000655 0.0004509 0.0000188 0.0003203 0.0000254 0.0003069 0.0001255 0.0003308 0.0000649 0.0004687 0.0000402 0.0003502 0.0000103 0.0003859 0.0000668 0.0005197 -0.0000422 0.0001143 -0.0000284 0.0001896 -0.0000038 0.0002898 0.0000300 0.0005285 -0.0000506 0.0003789 0.0000350 0.0005401 0.0000634 0.0005013 -0.0097449 0.0215727 -0.0000453 0.0004512 0.0059714 -0.0023839
0.0000584 0.0003190 0.0000654 0.0004620 0.0000610 0.0005608 0.0000130 0.0004597 0.0000169 0.0003774 0.0001264 0.0004631 0.0000624 0.0005574 0.0000380 0.0003996 -0.0000005 0.0004484 0.0000639 0.0005715 -0.0000565 0.0001051 -0.0000386 0.0002249 -0.0000064 0.0003293 0.0000280 0.0005116 -0.0000505 0.0003780 0.0000386 0.0005083 0.0000691 0.0005027 -0.0064592 0.0180946 -0.0000406 0.0003541 0.0122254 -0.0204550
0.0000580 0.0002805 0.0000666 0.0004186 0.0000655 0.0005234 -0.0000064 0.0003635 0.0000231 0.0003139 0.0001365 0.0003623 0.0000528 0.0005255 0.0000417 0.0003499 -0.0000019 0.0004492 0.0000775 0.0005419 -0.0000510 -0.0000089 -0.0000412 0.0001584 -0.0000032 0.0001727 0.0000343 0.0004184 -0.0000491 0.0003390 0.0000464 0.0003091 0.0000775 0.0004488 0.0082714 -0.0068052 -0.0000152 0.0001328 0.0039501 -0.0219492
0.0000587 0.0001931 0.0000688 0.0003423 0.0000719 0.0004251 0.0000059 0.0002257 0.0000430 0.0002661 0.0001546 0.0002183 0.0000743 0.0004578 0.0000452 0.0003042 0.0000064 0.0004209 0.0000867 0.0005252 -0.0000292 0.0000114 -0.0000355 0.0001215 0.0000075 0.0001142 0.0000438 0.0004025 -0.0000340 0.0003531 0.0000523 0.0003053 0.0000806 0.0004507 0.0080862 -0.0233843 -0.0000172 0.0002029 0.0057333 -0.0228978
0.0000587 0.0001960 0.0000707 0.0003545 0.0000656 0.0004319 0.0000463 0.0002888 0.0000482 0.0003500 0.0001536 0.0002712 0.0000958 0.0005170 0.0000493 0.0003300 -0.0000038 0.0004321 0.0000919 0.0005867 -0.0000112 0.0001144 -0.0000275 0.0001351 0.0000197 0.0001941 0.0000514 0.0004586 -0.0000146 0.0004438 0.0000425 0.0004070 0.0000785 0.0004848 -0.0030393 0.0107730 -0.0000186 0.0003251 0.0031657 -0.0004460
0.0000598 0.0002372 0.0000755 0.0004049 0.0000492 0.0004435 0.0000299 0.0004195 0.0000470 0.0004464 0.0001446 0.0003290 0.0000968 0.0005734 0.0000551 0.0003667 -0.0000037 0.0004253 0.0000961 0.0006369 -0.0000265 0.0001913 -0.0000550 0.0001844 0.0000064 0.0003170 0.0000545 0.0005437 -0.0000069 0.0005332 0.0000340 0.0005395 0.0000755 0.0005270 -0.0083275 0.0182063 -0.0000160 0.0004897 0.0065920 0.0039324
0.0000618 0.0003022 0.0000760 0.0004739 0.0000402 0.0004564 0.0000285 0.0005807 0.0000568 0.0005275 0.0001380 0.0004041 0.0000962 0.0006680 0.0000477 0.0004354 0.0000049 0.0004637 0.0000965 0.0006972 -0.0000423 0.0002170 -0.0000657 0.0002131 -0.0000076 0.0003924 0.0000547 0.0005614 -0.0000136 0.0005414 0.0000384 0.0005106 0.0000719 0.0005035 -0.0150094 0.0050434 -0.0000163 0.0003654 0.0019506 -0.0075340
0.0000669 0.0002871 0.0000812 0.0004616 0.0000447 0.0003716 0.0000437 0.0004637 0.0000666 0.0004707 0.0001297 0.0002795 0.0001025 0.0006041 0.0000535 0.0004107 0.0000174 0.0004123 0.0001165 0.0006883 -0.0000282 0.0001019 -0.0000461 0.0000979 -0.0000010 0.0002222 0.0000651 0.0004581 -0.0000237 0.0003885 0.0000432 0.0003113 0.0000648 0.0003912 -0.0070141 -0.0052436 -0.0000100 0.0000674 0.0011630 -0.0048137
0.0000662 0.0001947 0.0000813 0.0003728 0.0000522 0.0002666 0.0000547 0.0002705 0.0000788 0.0003967 0.0001386 0.0001182 0.0001177 0.0005006 0.0000682 0.0003287 0.0000212 0.0003501 0.0001273 0.0006485 0.0000018 0.0001116 -0.0000539 0.0000346 0.0000005 0.0000793 0.0000759 0.0003979 -0.0000314 0.0002429 0.0000473 0.0002543 0.0000617 0.0003185 -0.0070901 0.0007479 -0.0000171 0.0000865 0.0073444 0.0000386
0.0000659 0.0001751 0.0000760 0.0003309 0.0000566 0.0002389 0.0000823 0.0003037 0.0000892 0.0004268 0.0001440 0.0001665 0.0001041 0.0005678 0.0000618 0.0003205 0.0000044 0.0004144 0.0001131 0.0006395 0.0000242 0.0002672 -0.0000667 0.0000930 -0.0000001 0.0001337 0.0000790 0.0004481 -0.0000338 0.0002095 0.0000446 0.0003655 0.0000557 0.0003149 -0.0100729 0.0193451 -0.0000279 0.0002544 0.0096774 -0.0124070
0.0000666 0.0002106 0.0000702 0.0003411 0.0000500 0.0002620 0.0000706 0.0004495 0.0000813 0.0004546 0.0001409 0.0002578 0.0001080 0.0006282 0.0000518 0.0003450 -0.0000003 0.0004799 0.0001038 0.0006315 0.0000247 0.0003688 -0.0000661 0.0001626 -0.0000004 0.0002387 0.0000750 0.0005370 -0.0000451 0.0002152 0.0000337 0.0005257 0.0000479 0.0003385 -0.0015365 0.0132479 -0.0000287 0.0004183 0.0075385 -0.0230692
0.0000693 0.0002744 0.0000676 0.0003914 0.0000352 0.0003463 0.0000540 0.0006306 0.0000696 0.0004995 0.0001385 0.0003930 0.0001262 0.0007167 0.0000548 0.0003915 -0.0000096 0.0005513 0.0000917 0.0006843 0.0000125 0.0004340 -0.0000603 0.0002189 -0.0000030 0.0003761 0.0000681 0.0005998 -0.0000667 0.0002372 0.0000303 0.0006142 0.0000437 0.0003490 0.0050184 -0.0077534 -0.0000276 0.0003578 0.0039718 -0.0168191
0.0000750 0.0002822 0.0000690 0.0003954 0.0000304 0.0002897 0.0000544 0.0005217 0.0000690 0.0004322 0.0001299 0.0003019 0.0001118 0.0006945 0.0000606 0.0003558 -0.0000035 0.0005044 0.0000934 0.0006539 0.0000062 0.0002700 -0.0000607 0.0001085 0.0000100 0.0002112 0.0000727 0.0005156 -0.0000709 0.0001489 0.0000291 0.0003772 0.0000442 0.0002959 -0.0115002 0.0079948 -0.0000228 0.0001372 -0.0103314 0.0082674
0.0000880 0.0002538 0.0000679 0.0003254 0.0000366 0.0001297 0.0000809 0.0004078 0.0000701 0.0003143 0.0001324 0.0001115 0.0001346 0.0005976 0.0000547 0.0002648 0.0000288 0.0003974 0.0001112 0.0006301 -0.0000094 0.0000747 -0.0000738 -0.0000060 0.0000056 -0.0000109 0.0000804 0.0004735 -0.0000609 0.0001077 0.0000109 0.0001345 0.0000461 0.0002677 -0.0116124 0.0042762 -0.0000293 0.0001653 -0.0181442 0.0230215
0.0001376 0.0003495 0.0000718 0.0003118 0.0000651 0.0001120 0.0001457 0.0005482 0.0000557 0.0002771 0.0001202 0.0000902 0.0001484 0.0006099 0.0000505 0.0002503 0.0000394 0.0003888 0.0001083 0.0007109 -0.0000330 0.0000224 -0.0000726 -0.0000225 -0.0000066 0.0000050 0.0000914 0.0005322 -0.0000573 0.0001477 -0.0000012 0.0001394 0.0000427 0.0003096 -0.0028556 -0.0144235 -0.0000288 0.0003036 -0.0038927 0.0065349
0.0001631 0.0004379 0.0000764 0.0003615 0.0000881 0.0001814 0.0001424 0.0006172 0.0000396 0.0002631 0.0000954 0.0001302 0.0001273 0.0006696 0.0000478 0.0002920 0.0000315 0.0004189 0.0000949 0.0007361 -0.0000571 -0.0000043 -0.0000668 -0.0000196 -0.0000102 0.0000552 0.0000886 0.0005815 -0.0000807 0.0001665 -0.0000122 0.0002433 0.0000424 0.0003543 -0.0026641 -0.0077489 -0.0000309 0.0004031 -0.0068284 -0.0001921
0.0001319 0.0004321 0.0000761 0.0004241 0.0000730 0.0002347 0.0000899 0.0006249 0.0000385 0.0003031 0.0000910 0.0002343 0.0001223 0.0007669 0.0000463 0.0003698 0.0000080 0.0004924 0.0000923 0.0007529 -0.0000858 0.0000622 -0.0000812 0.0000660 -0.0000315 0.0001687 0.0000748 0.0006661 -0.0001006 0.0002030 -0.0000257 0.0004157 0.0000396 0.0003833 -0.0095591 0.0187763 -0.0000658 0.0004051 -0.0185348 0.0017983
0.0001066 0.0004022 0.0000834 0.0004556 0.0000523 0.0001879 0.0000735 0.0004703 0.0000445 0.0002835 0.0000858 0.0001559 0.0001327 0.0007497 0.0000603 0.0003705 0.0000109 0.0004635 0.0000994 0.0007094 -0.0000945 -0.0000260 -0.0000921 0.0000151 -0.0000381 0.0000598 0.0000832 0.0006100 -0.0001002 0.0001012 -0.0000246 0.0002652 0.0000282 0.0002927 -0.0171030 0.0257629 -0.0000928 0.0001700 -0.0035879 -0.0028166
0.0001027 0.0003448 0.0000975 0.0004317 0.0000406 0.0001341 0.0000465 0.0002874 0.0000586 0.0002594 0.0000667 -0.0000202 0.0001709 0.0007341 0.0000793 0.0003393 0.0000106 0.0003742 0.0001053 0.0006596 -0.0001210 -0.0001823 -0.0001049 -0.0001278 -0.0000648 -0.0001231 0.0001077 0.0005885 -0.0001036 0.0000132 -0.0000638 -0.0000300 0.0000103 0.0001211 -0.0084946 0.0067334 -0.0001780 -0.0001224 -0.0039986 0.0143872
0.0001071 0.0003353 0.0001036 0.0004293 0.0000425 0.0001603 0.0000282 0.0002276 0.0000554 0.0003508 0.0000156 -0.0001151 0.0002188 0.0009270 0.0000891 0.0003460 0.0000101 0.0004135 0.0001208 0.0006888 -0.0001767 -0.0001022 -0.0001297 -0.0000040 -0.0001291 -0.0000283 0.0001312 0.0008026 -0.0001047 0.0000650 -0.0001434 -0.0000804 -0.0000172 0.0000586 -0.0030868 0.0033148 -0.0002695 0.0000011 -0.0099091 0.0206193
0.0001068 0.0004298 0.0000912 0.0004935 0.0000760 0.0004083 0.0000430 0.0004169 0.0000769 0.0006019 -0.0000038 0.0000550 0.0002569 0.0012683 0.0000885 0.0004176 0.0000438 0.0005926 0.0001386 0.0007627 -0.0001387 0.0003126 -0.0001114 0.0003164 -0.0001283 0.0002914 0.0001476 0.0010319 -0.0001010 0.0001890 -0.0001666 0.0001808 -0.0000269 0.0001393 -0.0080797 0.0140681 -0.0002438 0.0004368 -0.0102007 0.0127252
0.0000960 0.0005355 0.0000849 0.0005979 0.0001111 0.0007340 0.0000493 0.0007724 0.0000890 0.0008005 0.0000377 0.0004007 0.0002673 0.0014719 0.0000824 0.0005190 0.0000428 0.0007182 0.0001244 0.0008208 -0.0001153 0.0005844 -0.0001169 0.0005165 -0.0001007 0.0006074 0.0001304 0.0010905 -0.0001179 0.0002529 -0.0001316 0.0005396 -0.0000064 0.0002720 0.0033040 0.0046125 -0.0001870 0.0007242 -0.0060588 0.0001154
0.0000848 0.0005526 0.0000724 0.0006110 0.0001369 0.0008364 0.0000605 0.0007991 0.0000464 0.0006440 0.0000696 0.0004586 0.0002268 0.0013043 0.0000683 0.0004624 0.0000192 0.0007024 0.0001100 0.0007349 -0.0001694 0.0002547 -0.0001297 0.0004506 -0.0000895 0.0005114 0.0000968 0.0009412 -0.0001427 0.0001421 -0.0001032 0.0004244 0.0000119 0.0002895 0.0027025 -0.0040277 -0.0001353 0.0006264 -0.0056242 0.0086607
0.0000911 0.0005099 0.0000588 0.0005085 0.0001519 0.0007568 0.0000664 0.0006706 0.0000348 0.0004781 0.0000830 0.0003657 0.0002037 0.0011330 0.0000528 0.0003942 0.0000369 0.0006888 0.0001066 0.0006725 -0.0001763 0.0000414 -0.0000963 0.0003994 -0.0000744 0.0003483 0.0000817 0.0008486 -0.0001458 0.0001017 -0.0000989 0.0002443 0.0000177 0.0002956 -0.0057013 0.0060203 -0.0000996 0.0005424 0.0049624 -0.0003313
0.0001397 0.0006009 0.0000554 0.0004682 0.0001649 0.0007227 0.0001004 0.0007720 0.0000380 0.0004956 0.0000893 0.0003670 0.0001984 0.0011298 0.0000420 0.0003993 0.0000358 0.0007366 0.0000983 0.0007130 -0.0001569 0.0001746 -0.0000819 0.0005182 -0.0000746 0.0004136 0.0000785 0.0008783 -0.0001278 0.0001942 -0.0000987 0.0003315 0.0000307 0.0003990 0.0062709 -0.0043561 -0.0000979 0.0007603 0.0138821 -0.0281169
0.0001981 0.0007881 0.0000467 0.0005045 0.0001982 0.0008351 0.0001521 0.0009649 0.0000325 0.0005562 0.0000895 0.0004989 0.0001717 0.0011621 0.0000342 0.0004285 0.0000276 0.0007950 0.0000934 0.0007085 -0.0001283 0.0003110 -0.0000675 0.0006602 -0.0000714 0.0005198 0.0000685 0.0009196 -0.0001121 0.0003013 -0.0000967 0.0004642 0.0000469 0.0005074 0.0157689 -0.0230617 -0.0000857 0.0009527 0.0025256 -0.0125832
0.0001765 0.0007785 0.0000433 0.0005462 0.0001888 0.0008966 0.0000985 0.0010261 0.0000205 0.0006159 0.0000921 0.0006827 0.0001384 0.0012057 0.0000270 0.0005030 0.0000413 0.0008644 0.0000747 0.0006256 -0.0001247 0.0004467 -0.0000560 0.0008247 -0.0000691 0.0006623 0.0000509 0.0009494 -0.0001155 0.0003504 -0.0000875 0.0006644 0.0000495 0.0005739 0.0186760 -0.0381534 -0.0000723 0.0009002 -0.0015970 0.0026261
0.0000960 0.0005760 0.0000303 0.0005325 0.0001487 0.0008033 0.0000173 0.0008073 0.0000051 0.0005185 0.0000989 0.0006105 0.0001106 0.0011136 0.0000119 0.0004695 0.0000216 0.0008998 0.0000452 0.0004586 -0.0001298 0.0003212 -0.0000323 0.0008152 -0.0000600 0.0005380 0.0000456 0.0008152 -0.0001286 0.0002094 -0.0000657 0.0005258 0.0000410 0.0004920 -0.0133488 0.0047550 -0.0000752 0.0005981 -0.0097005 0.0065754
0.0000548 0.0004050 0.0000243 0.0004526 0.0001328 0.0006958 -0.0000138 0.0005398 0.0000068 0.0004142 0.0000930 0.0004593 0.0001198 0.0010258 0.0000041 0.0003949 0.0000271 0.0008445 0.0000336 0.0003171 -0.0001119 0.0001937 -0.0000092 0.0007391 -0.0000412 0.0003644 0.0000473 0.0007194 -0.0001369 0.0000856 -0.0000560 0.0003209 0.0000329 0.0003881 -0.0392067 0.0220190 -0.0000710 0.0004633 -0.0343870 0.0244692
0.0000514 0.0003549 0.0000267 0.0004225 0.0001409 0.0007238 -0.0000105 0.0005468 0.0000226 0.0004413 0.0000913 0.0004713 0.0001318 0.0010594 -0.0000011 0.0003758 0.0000497 0.0007926 0.0000404 0.0003145 -0.0001024 0.0002885 -0.0000063 0.0007826 -0.0000364 0.0004205 0.0000498 0.0007916 -0.0001210 0.0001311 -0.0000559 0.0003836 0.0000331 0.0003788 -0.0124809 -0.0031851 -0.0000688 0.0005804 -0.0196303 0.0196301
0.0000341 0.0003248 0.0000306 0.0004513 0.0001312 0.0007587 -0.0000014 0.0006054 0.0000460 0.0005293 0.0000953 0.0005402 0.0001458 0.0011213 0.0000114 0.0003928 0.0000503 0.0008277 0.0000517 0.0003829 -0.0000684 0.0004753 -0.0000008 0.0008561 -0.0000315 0.0005046 0.0000549 0.0008675 -0.0000988 0.0002076 -0.0000563 0.0004830 0.0000318 0.0004031 -0.0046002 0.0114810 -0.0000699 0.0007557 -0.0049341 0.0042095
0.0000378 0.0003651 0.0000388 0.0005035 0.0001427 0.0008642 0.0000148 0.0007843 0.0000682 0.0007164 0.0000908 0.0006685 0.0001792 0.0012789 0.0000217 0.0004480 0.0000392 0.0009007 0.0000614 0.0004888 -0.0000217 0.0007056 0.0000043 0.0009008 -0.0000238 0.0005553 0.0000699 0.0008920 -0.0000915 0.0002623 -0.0000628 0.0004531 0.0000300 0.0003873 0.0039499 0.0020193 -0.0000571 0.0006353 -0.0029120 -0.0042394
0.0000633 0.0003924 0.0000466 0.0004963 0.0001861 0.0008831 0.0000418 0.0007160 0.0000981 0.0007536 0.0000986 0.0005336 0.0002210 0.0012647 0.0000328 0.0004165 0.0000598 0.0008288 0.0000817 0.0004549 0.0000243 0.0007572 0.0000126 0.0008071 -0.0000089 0.0004100 0.0000982 0.0007967 -0.0000739 0.0001780 -0.0000531 0.0002184 0.0000379 0.0002840 0.0065238 -0.0128474 -0.0000537 0.0003655 -0.0017841 -0.0134543
0.0000357 0.0002601 0.0000595 0.0004320 0.0001660 0.0007148 0.0000118 0.0003930 0.0001260 0.0006762 0.0001087 0.0003609 0.0002405 0.0011405 0.0000582 0.0003574 0.0000734 0.0007201 0.0000862 0.0002929 0.0000626 0.0007449 0.0000181 0.0006957 0.0000154 0.0002836 0.0001061 0.0007270 -0.0000754 0.0000191 -0.0000389 0.0001360 0.0000306 0.0001744 -0.0078327 -0.0033127 -0.0000525 0.0002814 0.0048575 -0.0176587
0.0000017 0.0001634 0.0000661 0.0004218 0.0001292 0.0006755 -0.0000259 0.0003813 0.0001104 0.0006559 0.0001059 0.0003942 0.0002296 0.0011314 0.0000522 0.0003358 0.0000396 0.0006857 0.0000630 0.0002308 0.0000433 0.0007570 0.0000059 0.0006630 0.0000221 0.0003593 0.0001021 0.0007831 -0.0001011 -0.0000211 -0.0000467 0.0002355 0.0000139 0.0001464 -0.0130328 0.0191865 -0.0000322 0.0004365 -0.0053642 0.0093181
0.0001491 0.0005744 0.0000765 0.0004868 0.0002129 0.0008006 0.0000794 0.0007093 0.0000777 0.0006551 0.0000912 0.0004071 0.0002293 0.0011539 0.0000299 0.0003536 0.0000212 0.0006897 0.0000491 0.0003083 0.0000121 0.0007727 -0.0000045 0.0006789 0.0000250 0.0004758 0.0000987 0.0008428 -0.0000989 0.0000730 -0.0000538 0.0003563 0.0000218 0.0002402 -0.0113834 0.0192621 -0.0000311 0.0006160 -0.0072847 0.0158182
0.0001239 0.0005804 0.0000717 0.0005307 0.0001471 0.0006345 0.0000718 0.0007194 0.0000436 0.0006102 0.0000654 0.0003980 0.0001934 0.0010960 0.0000058 0.0003451 0.0000247 0.0006804 0.0000369 0.0003040 -0.0000313 0.0005376 -0.0000054 0.0006410 0.0000166 0.0003543 0.0000786 0.0007138 -0.0000934 0.0000117 -0.0000501 0.0002164 0.0000252 0.0002164 -0.0052805 0.0023169 -0.0000559 0.0001860 -0.0018636 0.0004223
-0.0001157 -0.0000841 0.0000476 0.0004081 -0.0000375 0.0001832 -0.0000680 0.0002113 0.0000238 0.0004252 0.0000620 0.0002465 0.0001498 0.0008796 -0.0000011 0.0002528 0.0000217 0.0006082 0.0000228 0.0001754 -0.0000832 0.0002207 -0.0000049 0.0005698 0.0000060 0.0001217 0.0000706 0.0005247 -0.0001020 -0.0002083 -0.0000393 -0.0000152 0.0000094 0.0000596 -0.0044590 0.0152655 -0.0000762 -0.0002540 -0.0039466 0.0056860
-0.0001887 -0.0003648 0.0000358 0.0002909 -0.0000675 0.0000332 -0.0000809 -0.0000525 0.0000139 0.0003037 0.0000672 0.0001448 0.0001391 0.0007742 -0.0000026 0.0002143 0.0000148 0.0005800 0.0000096 0.0001290 -0.0000878 0.0001817 0.0000004 0.0005620 0.0000176 0.0000877 0.0000678 0.0004956 -0.0001257 -0.0003142 -0.0000304 -0.0000117 -0.0000036 -0.0000247 -0.0080231 0.0080115 -0.0000673 -0.0002349 -0.0021555 0.0087676
-0.0001934 -0.0003820 0.0000318 0.0002859 -0.0000553 0.0001548 -0.0000794 -0.0000042 0.0000070 0.0003131 0.0000660 0.0002096 0.0001296 0.0008052 -0.0000093 0.0002315 0.0000228 0.0005814 0.0000074 0.0001078 -0.0000811 0.0002446 0.0000030 0.0005822 0.0000236 0.0001663 0.0000629 0.0005433 -0.0001399 -0.0003364 -0.0000305 0.0000846 -0.0000135 -0.0000436 0.0057139 -0.0383503 -0.0000465 -0.0001053 0.0154157 -0.0157025
-0.0001484 -0.0002367 0.0000327 0.0003270 0.0000211 0.0003993 -0.0000476 0.0001949 0.0000059 0.0003512 0.0000655 0.0002936 0.0001285 0.0008579 -0.0000080 0.0002666 0.0000089 0.0005984 0.0000114 0.0001347 -0.0000869 0.0003499 -0.0000102 0.0006521 0.0000217 0.0003260 0.0000686 0.0006471 -0.0001325 -0.0002474 -0.0000380 0.0002531 -0.0000068 0.0000328 0.0003934 -0.0186016 -0.0000181 0.0001135 0.0094643 -0.0032588
0.0000412 0.0002942 0.0000492 0.0004092 0.0001693 0.0006286 0.0000640 0.0004035 0.0000080 0.0003205 0.0000592 0.0002212 0.0001297 0.0008471 -0.0000036 0.0002435 -0.0000039 0.0005596 0.0000189 0.0001738 -0.0000787 0.0002511 -0.0000153 0.0005817 0.0000313 0.0002234 0.0000793 0.0006125 -0.0001111 -0.0001842 -0.0000335 0.0000936 0.0000150 0.0000691 -0.0033642 -0.0086081 0.0000284 -0.0000336 -0.0119824 0.0207909
0.0000532 0.0002855 0.0000568 0.0003601 0.0001489 0.0004934 0.0000531 0.0002388 0.0000233 0.0002490 0.0000670 0.0000581 0.0001321 0.0007377 -0.0000022 0.0001768 0.0000092 0.0004969 0.0000225 0.0001435 -0.0000601 0.0001207 -0.0000038 0.0004929 0.0000368 0.0000199 0.0000785 0.0004735 -0.0000855 -0.0002297 -0.0000184 -0.0001281 0.0000215 0.0000299 0.0056228 -0.0207994 0.0000470 -0.0002808 -0.0129655 0.0168992
-0.0001294 -0.0002465 0.0000394 0.0002464 0.0000238 0.0002715 -0.0000263 -0.0000398 0.0000282 0.0002430 0.0000729 0.0000546 0.0001213 0.0006830 -0.0000082 0.0001815 0.0000070 0.0004915 0.0000182 0.0001111 -0.0000493 0.0001464 0.0000022 0.0005339 0.0000396 0.0000533 0.0000743 0.0004331 -0.0000807 -0.0002741 -0.0000058 -0.0000612 0.0000097 0.0000004 0.0024418 -0.0028976 0.0000456 -0.0002156 -0.0079792 0.0126635
-0.0001426 -0.0002798 0.0000314 0.0002508 0.0000548 0.0003715 0.0000025 0.0000346 0.0000270 0.0002559 0.0000638 0.0001235 0.0001021 0.0007008 -0.0000060 0.0002128 -0.0000066 0.0005002 0.0000134 0.0001236 -0.0000367 0.0002056 0.0000045 0.0005533 0.0000499 0.0001402 0.0000730 0.0004881 -0.0000830 -0.0002627 -0.0000085 0.0000443 0.0000054 0.0000116 0.0035056 0.0101918 0.0000633 -0.0000612 0.0064994 0.0002138
-0.0000900 -0.0001139 0.0000384 0.0003224 0.0001021 0.0005538 0.0000359 0.0002306 0.0000357 0.0003284 0.0000608 0.0002142 0.0001153 0.0007736 -0.0000026 0.0002563 -0.0000186 0.0005374 0.0000068 0.0001870 -0.0000237 0.0003529 -0.0000040 0.0005977 0.0000473 0.0002783 0.0000724 0.0005570 -0.0000751 -0.0001934 -0.0000100 0.0001358 0.0000126 0.0000477 0.0005261 0.0059300 0.0000699 -0.0000860 0.0106261 -0.0134101
-0.0000585 -0.0000585 0.0000482 0.0003318 0.0001152 0.0005321 0.0000485 0.0001409 0.0000501 0.0003076 0.0000637 0.0000964 0.0001288 0.0007266 0.0000046 0.0002114 -0.0000167 0.0004904 0.0000155 0.0001625 0.0000110 0.0002957 0.0000059 0.0004922 0.0000549 0.0001428 0.0000861 0.0004648 -0.0000689 -0.0002482 0.0000042 -0.0000660 0.0000144 -0.0000023 -0.0041124 0.0020606 0.0000859 -0.0002977 0.0033360 -0.0073379
-0.0000198 -0.0000398 0.0000599 0.0002685 0.0001419 0.0004711 0.0000724 0.0000110 0.0000727 0.0002550 0.0000732 -0.0000771 0.0001453 0.0006387 0.0000208 0.0001429 0.0000163 0.0003879 0.0000358 0.0000991 0.0000643 0.0002604 0.0000176 0.0003580 0.0000770 -0.0000539 0.0000986 0.0003754 -0.0000556 -0.0003294 0.0000095 -0.0002375 0.0000197 -0.0000425 0.0104658 -0.0167673 0.0001094 -0.0003258 0.0059633 -0.0114423
0.0000014 -0.0000004 0.0000645 0.0002535 0.0001563 0.0004927 0.0001063 0.0000466 0.0000877 0.0002703 0.0000821 -0.0000704 0.0001574 0.0006466 0.0000227 0.0001585 0.0000256 0.0003532 0.0000355 0.0001052 0.0000824 0.0003317 0.0000129 0.0003408 0.0000909 0.0000026 0.0001023 0.0004068 -0.0000483 -0.0002679 0.0000105 -0.0001402 0.0000272 0.0000006 0.0257385 -0.0515415 0.0001055 -0.0001461 0.0128921 -0.0174305
0.0000593 0.0001986 0.0000660 0.0003071 0.0001886 0.0005648 0.0001548 0.0001779 0.0000747 0.0002892 0.0000777 0.0000042 0.0001517 0.0006889 0.0000150 0.0001957 0.0000133 0.0003693 0.0000265 0.0001379 0.0000618 0.0002803 0.0000070 0.0003487 0.0000882 0.0000913 0.0000970 0.0004821 -0.0000588 -0.0001581 0.0000035 0.0000392 0.0000292 0.0000815 0.0080952 -0.0205970 0.0000941 0.0000510 0.0153121 -0.0131868
0.0000378 0.0001989 0.0000594 0.0003509 0.0001603 0.0005658 0.0001231 0.0002630 0.0000658 0.0003152 0.0000771 0.0001459 0.0001588 0.0007491 0.0000096 0.0002432 0.0000151 0.0004221 0.0000269 0.0001824 0.0000333 0.0002253 -0.0000066 0.0004040 0.0000698 0.0001562 0.0000848 0.0004825 -0.0000605 -0.0000944 0.0000004 0.0000598 0.0000282 0.0000751 -0.0021345 0.0007127 0.0000596 -0.0002129 0.0072558 -0.0002544
-0.0001127 -0.0002263 0.0000488 0.0002712 0.0000458 0.0002951 0.0000371 -0.0001088 0.0000751 0.0002194 0.0000828 0.0000269 0.0001697 0.0006122 0.0000104 0.0001913 0.0000025 0.0003770 0.0000257 0.0001323 0.0000146 -0.0000138 -0.0000038 0.0003106 0.0000645 0.0000002 0.0000782 0.0003200 -0.0000701 -0.0002633 0.0000231 -0.0001493 0.0000150 -0.0000634 -0.0011654 0.0153027 0.0000306 -0.0006194 -0.0072138 0.0149080
-0.0001960 -0.0005247 0.0000435 0.0001431 -0.0000133 0.0001167 0.0000188 -0.0004368 0.0000738 0.0001321 0.0000845 -0.0001182 0.0001483 0.0004960 0.0000184 0.0001042 -0.0000061 0.0003055 0.0000216 0.0000435 0.0000207 -0.0001559 0.0000195 0.0001901 0.0000761 -0.0001351 0.0000787 0.0002331 -0.0000839 -0.0004655 0.0000308 -0.0001873 0.0000009 -0.0001639 -0.0043965 0.0154486 0.0000505 -0.0005845 -0.0241714 0.0197475
-0.0001648 -0.0004752 0.0000408 0.0001185 0.0000423 0.0002714 0.0000630 -0.0003192 0.0000639 0.0001301 0.0000890 -0.0000732 0.0001301 0.0005132 0.0000102 0.0001085 -0.0000021 0.0003145 0.0000212 0.0000549 0.0000310 -0.0000473 0.0000127 0.0002183 0.0000781 -0.0000503 0.0000863 0.0002872 -0.0000863 -0.0004410 0.0000250 -0.0000805 0.0000005 -0.0001488 -0.0031146 -0.0010179 0.0000656 -0.0003730 0.0036639 -0.0130540
-0.0001003 -0.0002916 0.0000428 0.0001686 0.0000967 0.0004688 0.0001235 -0.0001370 0.0000676 0.0001639 0.0000890 -0.0000111 0.0001484 0.0005421 -0.0000003 0.0001441 -0.0000072 0.0003481 0.0000267 0.0001280 0.0000394 0.0000418 -0.0000044 0.0002764 0.0000735 0.0000722 0.0000899 0.0003701 -0.0000904 -0.0003414 0.0000247 0.0000655 0.0000034 -0.0000637 -0.0024471 0.0046065 0.0000666 -0.0001765 0.0253243 -0.0451363
-0.0001007 -0.0002236 0.0000392 0.0002414 0.0000747 0.0005462 0.0001056 -0.0000122 0.0000742 0.0002515 0.0000850 0.0001239 0.0001520 0.0006482 0.0000056 0.0001903 -0.0000083 0.0003968 0.0000308 0.0001805 0.0000426 0.0000264 0.0000028 0.0002789 0.0000692 0.0000815 0.0000854 0.0003707 -0.0000752 -0.0003270 0.0000243 0.0000324 0.0000083 -0.0000529 0.0011674 0.0049977 0.0000657 -0.0003908 0.0155445 -0.0341946
-0.0001473 -0.0003403 0.0000461 0.0002166 -0.0000245 0.0001385 0.0000757 -0.0002193 0.0000928 0.0002182 0.0000891 0.0000132 0.0001542 0.0006062 0.0000118 0.0001696 -0.0000051 0.0003536 0.0000357 0.0001332 0.0000447 -0.0000904 0.0000065 0.0001895 0.0000727 -0.0000939 0.0000858 0.0002520 -0.0000496 -0.0004278 0.0000363 -0.0001671 0.0000170 -0.0001156 0.0043267 -0.0084609 0.0000520 -0.0007189 -0.0047253 0.0016261
-0.0001994 -0.0005167 0.0000513 0.0001393 -0.0001288 -0.0002881 0.0000621 -0.0005019 0.0000987 0.0001473 0.0000831 -0.0001194 0.0001560 0.0005155 0.0000141 0.0001229 -0.0000009 0.0002928 0.0000375 0.0000822 0.0000677 -0.0001144 0.0000171 0.0001208 0.0000858 -0.0001578 0.0000902 0.0002076 -0.0000460 -0.0004668 0.0000410 -0.0001567 0.0000140 -0.0001429 0.0058847 -0.0145103 0.0000681 -0.0006397 -0.0094991 0.0071838
-0.0002121 -0.0005612 0.0000415 0.0001402 -0.0000874 -0.0000426 0.0000586 -0.0003954 0.0000967 0.0001554 0.0000846 -0.0000593 0.0001786 0.0005264 0.0000151 0.0001306 -0.0000133 0.0003078 0.0000364 0.0001271 0.0000759 -0.0000353 0.0000126 0.0001359 0.0000907 -0.0000393 0.0000910 0.0002659 -0.0000394 -0.0004244 0.0000407 -0.0000340 0.0000102 -0.0001102 0.0054826 0.0005420 0.0000961 -0.0004156 -0.0213365 0.0250876
-0.0001647 -0.0004296 0.0000395 0.0001775 0.0000020 0.0003020 0.0001064 -0.0001852 0.0000847 0.0002188 0.0000870 0.0000196 0.0001778 0.0005950 0.0000162 0.0001742 -0.0000385 0.0003563 0.0000485 0.0002370 0.0000805 0.0000790 0.0000011 0.0001809 0.0000934 0.0000977 0.0000881 0.0003470 -0.0000444 -0.0003070 0.0000357 0.0001083 0.0000174 -0.0000085 0.0074399 -0.0061049 0.0000940 -0.0001893 -0.0204350 0.0225251
-0.0001181 -0.0002444 0.0000449 0.0002488 0.0000336 0.0004513 0.0001393 -0.0000204 0.0000766 0.0002812 0.0000757 0.0000929 0.0001496 0.0006734 0.0000173 0.0002109 -0.0000293 0.0003493 0.0000572 0.0003405 0.0000904 0.0000306 -0.0000020 0.0001408 0.0000939 0.0000535 0.0000909 0.0003208 -0.0000421 -0.0002584 0.0000316 0.0000111 0.0000246 0.0000118 0.0168592 -0.0319127 0.0001027 -0.0003271 0.0095106 -0.0263085
-0.0001089 -0.0002423 0.0000524 0.0002348 0.0000397 0.0004138 0.0001410 -0.0001142 0.0000973 0.0002414 0.0000799 -0.0000123 0.0001624 0.0006199 0.0000254 0.0001781 -0.0000084 0.0002742 0.0000593 0.0003359 0.0001131 -0.0000461 0.0000033 0.0000419 0.0001003 -0.0001085 0.0001083 0.0002391 -0.0000236 -0.0003192 0.0000448 -0.0001904 0.0000312 -0.0000305 0.0113671 -0.0133041 0.0001122 -0.0005148 0.0038305 -0.0091126
-0.0001361 -0.0003761 0.0000562 0.0001729 0.0000144 0.0002341 0.0001340 -0.0003429 0.0001080 0.0002146 0.0000886 -0.0000832 0.0001751 0.0005772 0.0000363 0.0001595 0.0000064 0.0002475 0.0000616 0.0002983 0.0001345 -0.0000105 0.0000145 0.0000316 0.0001101 -0.0001398 0.0001131 0.0002356 -0.0000190 -0.0003229 0.0000548 -0.0001347 0.0000374 -0.0000183 -0.0015141 -0.0041977 0.0001017 -0.0005146 -0.0015195 0.0042255
-0.0001903 -0.0004398 0.0000478 0.0001610 -0.0001854 -0.0003733 0.0001022 -0.0003733 0.0001007 0.0002244 0.0001026 0.0000038 0.0001718 0.0005858 0.0000196 0.0001864 0.0000048 0.0002807 0.0000512 0.0003037 0.0001171 -0.0000288 0.0000157 0.0001099 0.0001084 -0.0000602 0.0000964 0.0002881 -0.0000052 -0.0002678 0.0000551 0.0000460 0.0000443 0.0000466 -0.0313316 0.0232440 0.0000876 -0.0004846 0.0088777 -0.0094245
-0.0002189 -0.0004306 0.0000393 0.0001737 -0.0003468 -0.0008125 0.0000779 -0.0003346 0.0000819 0.0002634 0.0001114 0.0001089 0.0001728 0.0006020 -0.0000017 0.0002318 -0.0000099 0.0003474 0.0000395 0.0003334 0.0000887 0.0000106 0.0000099 0.0002354 0.0000993 0.0001109 0.0000896 0.0004041 -0.0000026 -0.0001616 0.0000549 0.0002716 0.0000415 0.0001124 -0.0224481 0.0147767 0.0000735 -0.0002880 -0.0004339 0.0007795
-0.0002316 -0.0004765 0.0000384 0.0002336 -0.0002464 -0.0003576 0.0000711 -0.0003842 0.0000816 0.0002631 0.0001001 0.0000790 0.0001693 0.0005840 0.0000119 0.0002355 -0.0000030 0.0003404 0.0000431 0.0003312 0.0000811 -0.0000782 0.0000174 0.0001861 0.0001063 0.0000637 0.0001054 0.0003857 -0.0000094 -0.0001702 0.0000517 0.0001505 0.0000323 0.0000539 -0.0072790 -0.0151141 0.0000997 -0.0003813 0.0007310 0.0059713
-0.0001920 -0.0004693 0.0000492 0.0002232 -0.0001056 0.0000788 0.0000962 -0.0004242 0.0001185 0.0002497 0.0001039 -0.0000811 0.0001955 0.0005380 0.0000370 0.0002062 0.0000131 0.0002834 0.0000737 0.0003247 0.0001346 -0.0000343 0.0000293 0.0000776 0.0001209 -0.0000818 0.0001257 0.0003310 0.0000047 -0.0002283 0.0000519 -0.0000821 0.0000367 -0.0000154 -0.0100103 -0.0119422 0.0001382 -0.0005094 0.0075855 -0.0027895
-0.0001290 -0.0003719 0.0000597 0.0001802 -0.0000239 0.0001943 0.0001611 -0.0003723 0.0001492 0.0003003 0.0001134 -0.0001216 0.0002158 0.0005629 0.0000470 0.0001992 0.0000173 0.0003051 0.0000902 0.0003547 0.0001988 0.0001888 0.0000435 0.0000882 0.0001283 -0.0000431 0.0001428 0.0003724 0.0000235 -0.0001981 0.0000595 -0.0000431 0.0000434 0.0000026 -0.0061326 -0.0124123 0.0001478 -0.0003844 0.0082392 -0.0160669
-0.0001063 -0.0002958 0.0000567 0.0001834 0.0000174 0.0003172 0.0001938 -0.0002925 0.0001280 0.0003656 0.0001100 -0.0000128 0.0001965 0.0006009 0.0000351 0.0002109 0.0000225 0.0003335 0.0000816 0.0003887 0.0002019 0.0002596 0.0000419 0.0001434 0.0001322 0.0000501 0.0001410 0.0004238 0.0000265 -0.0001373 0.0000552 0.0000913 0.0000455 0.0000560 -0.0131917 0.0086655 0.0001556 -0.0002679 0.0002799 0.0047792
-0.0000984 -0.0002294 0.0000478 0.0001985 0.0000416 0.0005008 0.0001989 -0.0001863 0.0001091 0.0004231 0.0001192 0.0001422 0.0001836 0.0006278 0.0000259 0.0002528 0.0000296 0.0003619 0.0000741 0.0004589 0.0001794 0.0003130 0.0000168 0.0002633 0.0001215 0.0001709 0.0001270 0.0004721 0.0000286 -0.0000743 0.0000568 0.0001749 0.0000462 0.0000834 -0.0095991 0.0069602 0.0001574 -0.0003571 -0.0049691 0.0143986
-0.0000950 -0.0002417 0.0000483 0.0001685 0.0000556 0.0005081 0.0002137 -0.0003240 0.0001304 0.0003704 0.0001306 0.0000537 0.0001872 0.0005446 0.0000340 0.0002236 0.0000169 0.0003502 0.0000879 0.0004318 0.0001940 0.0001985 0.0000325 0.0002115 0.0001187 0.0000167 0.0001389 0.0003861 0.0000420 -0.0001314 0.0000750 -0.0000224 0.0000497 0.0000216 0.0064474 -0.0126850 0.0001693 -0.0006526 0.0067849 -0.0146509
-0.0001009 -0.0003399 0.0000535 0.0000851 0.0000603 0.0003660 0.0002040 -0.0005328 0.0001484 0.0002909 0.0001399 -0.0001095 0.0002003 0.0004369 0.0000427 0.0001615 0.0000231 0.0002917 0.0000960 0.0003306 0.0002203 0.0000918 0.0000557 0.0000944 0.0001309 -0.0001780 0.0001520 0.0002959 0.0000523 -0.0002569 0.0000839 -0.0001466 0.0000530 -0.0000446 0.0117417 -0.0239533 0.0001864 -0.0007336 0.0077143 -0.0073688
-0.0001036 -0.0003719 0.0000484 0.0000520 0.0000581 0.0003297 0.0002095 -0.0005037 0.0001405 0.0002704 0.0001419 -0.0000984 0.0001996 0.0004319 0.0000433 0.0001420 0.0000184 0.0002912 0.0000831 0.0003128 0.0002109 0.0001224 0.0000556 0.0000977 0.0001391 -0.0001161 0.0001532 0.0003160 0.0000522 -0.0002806 0.0000895 -0.0000468 0.0000538 -0.0000533 -0.0027450 -0.0009968 0.0001950 -0.0005795 0.0106036 -0.0053057
-0.0000959 -0.0003323 0.0000452 0.0000645 0.0000617 0.0003984 0.0002203 -0.0003963 0.0001266 0.0002675 0.0001340 0.0000116 0.0001778 0.0004756 0.0000359 0.0001553 0.0000077 0.0003334 0.0000821 0.0003571 0.0001999 0.0001549 0.0000564 0.0001619 0.0001449 0.0000228 0.0001543 0.0003743 0.0000440 -0.0002272 0.0001017 0.0001661 0.0000535 0.0000025 -0.0108603 0.0110638 0.0002089 -0.0003815 0.0103648 -0.0101150
-0.0000964 -0.0002775 0.0000421 0.0001056 0.0000701 0.0004952 0.0002023 -0.0002826 0.0001149 0.0002694 0.0001444 0.0000778 0.0001637 0.0004667 0.0000418 0.0001641 0.0000171 0.0003293 0.0000872 0.0003770 0.0001946 0.0000977 0.0000522 0.0001777 0.0001457 0.0000118 0.0001611 0.0003269 0.0000512 -0.0002427 0.0001221 0.0001421 0.0000589 -0.0000017 -0.0155757 0.0091375 0.0002334 -0.0005266 -0.0013621 0.0040633
-0.0000927 -0.0003106 0.0000498 0.0000817 0.0000748 0.0004074 0.0002210 -0.0004271 0.0001383 0.0002203 0.0001500 -0.0000968 0.0001853 0.0003858 0.0000688 0.0001237 0.0000153 0.0002849 0.0001018 0.0003400 0.0002120 0.0000124 0.0000589 0.0000814 0.0001455 -0.0001586 0.0001839 0.0002433 0.0000879 -0.0003004 0.0001298 -0.0001370 0.0000674 -0.0000984 -0.0114863 0.0106414 0.0002295 -0.0008207 0.0029724 0.0086124
-0.0000850 -0.0003725 0.0000683 0.0000334 0.0000697 0.0002738 0.0002351 -0.0006006 0.0001482 0.0001897 0.0001289 -0.0001995 0.0001902 0.0003878 0.0000759 0.0001255 0.0000262 0.0002463 0.0001184 0.0003662 0.0002183 0.0000450 0.0000684 0.0000999 0.0001313 -0.0001761 0.0002012 0.0003356 0.0001103 -0.0002668 0.0001083 -0.0001082 0.0000607 -0.0001166 -0.0082342 0.0129445 0.0002089 -0.0007139 0.0107058 -0.0049392
-0.0000850 -0.0003323 0.0000633 0.0000558 0.0000690 0.0004234 0.0002334 -0.0003949 0.0001472 0.0003088 0.0001559 0.0000467 0.0001942 0.0005191 0.0000770 0.0002099 0.0000531 0.0003115 0.0001369 0.0004641 0.0002177 0.0002229 0.0000708 0.0003635 0.0001184 0.0000586 0.0002041 0.0005070 0.0001255 -0.0001260 0.0001138 0.0001678 0.0000587 -0.0000464 -0.0005654 0.0050483 0.0002208 -0.0003661 0.0140429 -0.0168652
-0.0000910 -0.0002669 0.0000455 0.0000879 0.0000875 0.0006221 0.0002620 -0.0001406 0.0001541 0.0003897 0.0002035 0.0003773 0.0001928 0.0005856 0.0000768 0.0002837 0.0000656 0.0004294 0.0001367 0.0005233 0.0002098 0.0003203 0.0000795 0.0005780 0.0001283 0.0003142 0.0001928 0.0005574 0.0001189 -0.0000732 0.0001508 0.0004414 0.0000731 0.0000222 -0.0014819 0.0029469 0.0002609 -0.0002336 0.0063587 0.0003269
-0.0000970 -0.0002803 0.0000372 0.0000581 0.0000981 0.0005924 0.0002593 -0.0001968 0.0001500 0.0002669 0.0002243 0.0003560 0.0001728 0.0004350 0.0000682 0.0002320 0.0000522 0.0004383 0.0001280 0.0004580 0.0001994 0.0001523 0.0001003 0.0005172 0.0001387 0.0002216 0.0001853 0.0004249 0.0000971 -0.0002070 0.0001683 0.0003786 0.0000879 -0.0000133 -0.0139727 0.0080603 0.0002999 -0.0003694 0.0009597 -0.0006836
-0.0000996 -0.0003486 0.0000368 -0.0000315 0.0000938 0.0005060 0.0002625 -0.0003597 0.0001633 0.0001849 0.0002427 0.0002250 0.0001726 0.0003152 0.0000686 0.0001480 0.0000524 0.0004099 0.0001282 0.0003601 0.0002262 0.0001071 0.0001198 0.0004621 0.0001455 0.0000953 0.0001956 0.0003492 0.0001122 -0.0003051 0.0001781 0.0002549 0.0000920 -0.0000647 -0.0038451 -0.0090868 0.0003043 -0.0003288 -0.0060971 -0.0050269
-0.0000968 -0.0003635 0.0000337 -0.0000694 0.0001008 0.0005103 0.0002832 -0.0003371 0.0001591 0.0002066 0.0002440 0.0002908 0.0001678 0.0003246 0.0000656 0.0001259 0.0000706 0.0004036 0.0001151 0.0003209 0.0002379 0.0001875 0.0001308 0.0005350 0.0001493 0.0001713 0.0001959 0.0003991 0.0001169 -0.0002912 0.0001787 0.0003841 0.0000925 -0.0000358 0.0093667 -0.0183378 0.0003062 -0.0001359 0.0080448 -0.0195069
-0.0000940 -0.0003259 0.0000253 -0.0000405 0.0001101 0.0005988 0.0002842 -0.0001714 0.0001537 0.0002374 0.0002528 0.0004273 0.0001537 0.0003499 0.0000592 0.0001506 0.0000783 0.0004531 0.0001016 0.0003346 0.0002216 0.0002602 0.0001540 0.0006592 0.0001378 0.0003054 0.0001816 0.0004733 0.0001108 -0.0002312 0.0001754 0.0006100 0.0000990 0.0000347 0.0083326 -0.0106920 0.0003118 0.0000944 0.0032605 -0.0018564
-0.0000959 -0.0002481 0.0000218 0.0000264 0.0001224 0.0007028 0.0003055 -0.0000434 0.0001570 0.0002724 0.0002620 0.0005160 0.0001253 0.0003464 0.0000489 0.0001577 0.0000720 0.0005193 0.0000900 0.0003387 0.0002019 0.0001981 0.0001709 0.0007292 0.0001299 0.0002927 0.0001744 0.0004446 0.0001195 -0.0002582 0.0001904 0.0005993 0.0001056 0.0000240 0.0075009 -0.0128011 0.0003265 0.0000596 0.0041013 0.0049075
-0.0000940 -0.0002606 0.0000277 -0.0000031 0.0001201 0.0006702 0.0003142 -0.0001495 0.0001604 0.0002445 0.0002596 0.0004560 0.0001195 0.0002452 0.0000517 0.0001021 0.0000807 0.0004941 0.0000898 0.0002721 0.0002118 0.0000992 0.0001766 0.0007417 0.0001345 0.0001804 0.0001770 0.0003630 0.0001290 -0.0003511 0.0002021 0.0005086 0.0001121 -0.0000448 0.0138607 -0.0292186 0.0003584 -0.0000371 0.0074301 -0.0050287
-0.0000895 -0.0003154 0.0000387 -0.0000683 0.0001163 0.0006259 0.0003136 -0.0002000 0.0001732 0.0002266 0.0002763 0.0004580 0.0001395 0.0001689 0.0000579 0.0000947 0.0000933 0.0005176 0.0000929 0.0002258 0.0002266 0.0001988 0.0001849 0.0008243 0.0001301 0.0002647 0.0001764 0.0003802 0.0001323 -0.0003625 0.0002204 0.0006752 0.0001198 -0.0000305 0.0017721 -0.0125355 0.0003749 0.0001747 0.0052342 -0.0060462
-0.0000975 -0.0002948 0.0000447 -0.0000382 0.0001142 0.0006679 0.0003399 -0.0000525 0.0001900 0.0003222 0.0002847 0.0005885 0.0001407 0.0002530 0.0000704 0.0001729 0.0000820 0.0005964 0.0001074 0.0003337 0.0002419 0.0003721 0.0001968 0.0009736 0.0001363 0.0004495 0.0001899 0.0004762 0.0001588 -0.0002254 0.0002308 0.0008542 0.0001339 0.0000281 -0.0030036 -0.0066658 0.0003911 0.0004202 0.0063409 -0.0010704
-0.0001105 -0.0002492 0.0000493 0.0000272 0.0000770 0.0007350 0.0003392 0.0001345 0.0002002 0.0004712 0.0002811 0.0007439 0.0001252 0.0003905 0.0000803 0.0002744 0.0000710 0.0006216 0.0001220 0.0005014 0.0002524 0.0005300 0.0002018 0.0011255 0.0001445 0.0006571 0.0001919 0.0005769 0.0001684 -0.0000576 0.0002206 0.0009813 0.0001483 0.0000708 0.0077385 -0.0240959 0.0004185 0.0004521 -0.0065662 0.0146970
-0.0001281 -0.0002678 0.0000538 0.0000384 0.0000314 0.0006222 0.0003287 0.0000665 0.0002204 0.0005135 0.0002844 0.0006425 0.0001195 0.0003376 0.0001006 0.0002730 0.0000719 0.0005494 0.0001367 0.0005033 0.0002733 0.0004976 0.0002093 0.0010825 0.0001655 0.0006312 0.0002054 0.0005070 0.0001956 -0.0000872 0.0002374 0.0008196 0.0001579 -0.0000042 0.0168432 -0.0254739 0.0004445 0.0003244 -0.0074391 0.0239074
-0.0001542 -0.0003737 0.0000638 -0.0000344 -0.0000110 0.0003980 0.0003367 -0.0001649 0.0002615 0.0005820 0.0002750 0.0004184 0.0001362 0.0002522 0.0001506 0.0002401 0.0000920 0.0003974 0.0001674 0.0004331 0.0003321 0.0005090 0.0002333 0.0009714 0.0002072 0.0005717 0.0002521 0.0004352 0.0002629 -0.0000776 0.0002624 0.0006352 0.0001610 -0.0001303 0.0154331 -0.0057887 0.0004736 0.0003268 0.0005800 0.0118893
-0.0001775 -0.0004510 0.0000734 -0.0000741 -0.0000473 0.0003601 0.0003289 -0.0001819 0.0003283 0.0007630 0.0002734 0.0003753 0.0001828 0.0002727 0.0002026 0.0002996 0.0001329 0.0002642 0.0001934 0.0004325 0.0003689 0.0006544 0.0002460 0.0010182 0.0002180 0.0007236 0.0002910 0.0005125 0.0003025 0.0000828 0.0002879 0.0007599 0.0001595 -0.0002054 0.0039819 0.0049769 0.0004938 0.0005013 0.0034711 -0.0035645
-0.0002006 -0.0004643 0.0000719 -0.0000647 -0.0000730 0.0004029 0.0003280 -0.0001321 0.0003948 0.0009605 0.0002870 0.0004168 0.0002131 0.0002994 0.0002363 0.0003993 0.0001238 0.0002377 0.0002093 0.0004584 0.0003696 0.0007271 0.0002600 0.0010969 0.0002167 0.0008517 0.0003117 0.0006146 0.0003160 0.0002107 0.0003105 0.0009303 0.0001517 -0.0002927 -0.0228829 0.0220890 0.0005000 0.0008522 -0.0040324 -0.0056660
-0.0001603 -0.0003176 0.0000843 -0.0000219 -0.0000741 0.0004216 0.0003602 -0.0000096 0.0004262 0.0011403 0.0002839 0.0004036 0.0002081 0.0003407 0.0002562 0.0004080 0.0001181 0.0001654 0.0002212 0.0004279 0.0003694 0.0006399 0.0002788 0.0010020 0.0002232 0.0008018 0.0003191 0.0005849 0.0003210 0.0002049 0.0003013 0.0008003 0.0001338 -0.0004496 -0.0004180 0.0063867 0.0004908 0.0008977 0.0033630 -0.0179357
-0.0000667 -0.0001736 0.0001192 -0.0000692 -0.0000280 0.0003006 0.0004096 -0.0000569 0.0004526 0.0011326 0.0002793 0.0001573 0.0002374 0.0002715 0.0002957 0.0003089 0.0001715 -0.0000220 0.0002486 0.0003634 0.0003728 0.0004766 0.0002786 0.0008263 0.0002280 0.0006447 0.0003422 0.0004645 0.0003418 0.0000764 0.0002916 0.0004925 0.0001222 -0.0006187 0.0104195 -0.0153909 0.0004680 0.0007508 0.0036852 -0.0031468
-0.0000178 -0.0001819 0.0001399 -0.0001762 -0.0000009 0.0001681 0.0004178 -0.0002942 0.0004694 0.0009677 0.0002774 -0.0000107 0.0002631 0.0001056 0.0003056 0.0002153 0.0001833 -0.0001044 0.0002440 0.0002201 0.0003531 0.0003569 0.0002665 0.0007048 0.0002429 0.0005801 0.0003407 0.0003679 0.0003201 -0.0001600 0.0002956 0.0004349 0.0001055 -0.0007556 0.0194476 -0.0449666 0.0004491 0.0007560 0.0028938 0.0007663
-0.0000159 -0.0002211 0.0001321 -0.0002396 -0.0000010 0.0001911 0.0003743 -0.0003444 0.0004426 0.0008454 0.0002887 0.0001049 0.0002338 0.0000367 0.0002858 0.0001596 0.0001780 -0.0001019 0.0002155 0.0000556 0.0003211 0.0002828 0.0002553 0.0006760 0.0002649 0.0006174 0.0003017 0.0003078 0.0002489 -0.0004384 0.0003103 0.0006496 0.0000943 -0.0008091 0.0245757 -0.0604893 0.0004417 0.0008245 0.0011526 0.0026385
-0.0000137 -0.0002012 0.0001105 -0.0002716 0.0000073 0.0002754 0.0003560 -0.0002201 0.0003949 0.0007741 0.0003242 0.0003612 0.0002018 0.0000545 0.0002514 0.0001587 0.0001848 0.0000426 0.0001786 -0.0000241 0.0002976 0.0003315 0.0002573 0.0007529 0.0002709 0.0006964 0.0002718 0.0003156 0.0001817 -0.0006751 0.0003213 0.0008947 0.0001049 -0.0007135 0.0181388 -0.0217701 0.0004240 0.0008743 -0.0165639 0.0202559
0.0000036 -0.0001521 0.0000885 -0.0002863 0.0000217 0.0002673 0.0003576 -0.0002474 0.0003631 0.0006270 0.0003232 0.0003549 0.0001849 -0.0000276 0.0002150 0.0000999 0.0002023 0.0001680 0.0001332 -0.0001453 0.0002893 0.0002108 0.0002650 0.0006352 0.0002607 0.0004032 0.0002539 0.0002323 0.0001266 -0.0009211 0.0002984 0.0006392 0.0001195 -0.0006703 0.0107440 -0.0039150 0.0003927 0.0004757 -0.0174503 0.0045607
0.0000210 -0.0001885 0.0000896 -0.0003492 0.0000301 0.0001165 0.0003408 -0.0004101 0.0003544 0.0004657 0.0002820 0.0000396 0.0001799 -0.0001200 0.0002062 0.0000244 0.0002130 0.0001030 0.0001229 -0.0002177 0.0002746 0.0000069 0.0002585 0.0003943 0.0002496 0.0000005 0.0002438 0.0001289 0.0001041 -0.0010828 0.0002690 0.0002881 0.0001308 -0.0006873 0.0025296 -0.0071312 0.0003562 0.0000993 -0.0179153 0.0104907
0.0000364 -0.0002088 0.0001080 -0.0003678 0.0000176 0.0000306 0.0003339 -0.0004199 0.0003354 0.0003889 0.0002398 -0.0001034 0.0001825 -0.0001283 0.0001937 0.0000437 0.0001718 0.0000784 0.0001085 -0.0001699 0.0002359 -0.0000851 0.0002451 0.0002937 0.0002357 -0.0000845 0.0002319 0.0001312 0.0000668 -0.0011317 0.0002605 0.0003090 0.0001347 -0.0006527 0.0017191 -0.0226577 0.0003177 0.0000948 -0.0090645 0.0210208
0.0000513 -0.0001631 0.0001180 -0.0003066 0.0000116 0.0000629 0.0003382 -0.0003357 0.0003102 0.0003615 0.0002094 -0.0000368 0.0001673 -0.0000729 0.0001755 0.0000817 0.0001492 0.0001123 0.0000952 -0.0000830 0.0002001 -0.0001641 0.0002430 0.0003159 0.0002289 -0.0000658 0.0002112 0.0002180 0.0000188 -0.0010852 0.0002509 0.0004227 0.0001270 -0.0005893 -0.0335309 0.0131033 0.0002976 0.0001770 -0.0050849 0.0069741
0.0000632 -0.0000830 0.0001266 -0.0002004 -0.0000022 0.0001330 0.0003182 -0.0001822 0.0002877 0.0004048 0.0001884 0.0000734 0.0001571 0.0000354 0.0001667 0.0001710 0.0001350 0.0001948 0.0000963 0.0000432 0.0001775 -0.0000911 0.0002365 0.0004022 0.0002230 0.0000530 0.0002020 0.0003396 0.0000180 -0.0009801 0.0002388 0.0005743 0.0001259 -0.0004831 -0.0136466 -0.0009725 0.0002895 0.0002483 -0.0100971 -0.0083530
0.0000689 -0.0000133 0.0001416 -0.0001070 -0.0000195 0.0000929 0.0002993 -0.0002191 0.0002812 0.0004056 0.0001748 -0.0000433 0.0001627 0.0000107 0.0001734 0.0001953 0.0001049 0.0002222 0.0000976 0.0001038 0.0001775 -0.0001376 0.0002289 0.0003518 0.0002208 -0.0000608 0.0002027 0.0002951 0.0000237 -0.0009939 0.0002389 0.0003890 0.0001279 -0.0004813 -0.0126493 -0.0027039 0.0002962 0.0000603 -0.0052744 -0.0034873
0.0000766 -0.0000320 0.0001581 -0.0001204 -0.0000166 -0.0000050 0.0003037 -0.0003842 0.0003048 0.0003829 0.0001730 -0.0002097 0.0001801 -0.0000565 0.0001802 0.0001508 0.0001099 0.0001495 0.0001145 0.0000811 0.0002148 -0.0001441 0.0002329 0.0002545 0.0002349 -0.0002482 0.0002069 0.0002239 0.0000175 -0.0010382 0.0002414 0.0001772 0.0001241 -0.0005470 -0.0090247 0.0060445 0.0002970 -0.0000748 -0.0006174 -0.0062226
0.0000830 -0.0000358 0.0001679 -0.0001214 -0.0000163 0.0000331 0.0003077 -0.0003462 0.0003148 0.0004501 0.0001757 -0.0001361 0.0001958 -0.0000119 0.0001727 0.0001887 0.0001237 0.0001224 0.0001228 0.0000976 0.0002315 0.0000204 0.0002116 0.0002862 0.0002453 -0.0001522 0.0002049 0.0002719 0.0000048 -0.0009743 0.0002444 0.0002814 0.0001215 -0.0005170 -0.0014547 0.0059077 0.0002734 0.0000850 -0.0028126 -0.0071877
0.0000833 0.0000361 0.0001703 -0.0000382 -0.0000177 0.0001292 0.0003024 -0.0002117 0.0002890 0.0005297 0.0001682 0.0000248 0.0001748 0.0000626 0.0001706 0.0002497 0.0001127 0.0001458 0.0001133 0.0001600 0.0002028 0.0000727 0.0001889 0.0003442 0.0002389 0.0000193 0.0001992 0.0003448 -0.0000100 -0.0008794 0.0002444 0.0004612 0.0001183 -0.0004251 0.0013450 0.0031883 0.0002545 0.0002957 -0.0102668 0.0100329
0.0000834 0.0001383 0.0001727 0.0000687 -0.0000264 0.0002562 0.0002683 0.0000060 0.0002606 0.0006197 0.0001559 0.0002209 0.0001422 0.0001687 0.0001643 0.0003411 0.0000922 0.0002298 0.0001091 0.0002423 0.0001698 0.0001442 0.0001798 0.0004298 0.0002259 0.0002335 0.0001899 0.0004658 -0.0000224 -0.0007536 0.0002287 0.0007147 0.0001195 -0.0003145 0.0024903 0.0016918 0.0002278 0.0005188 -0.0015233 0.0128315
0.0000850 0.0002411 0.0001708 0.0001876 -0.0000324 0.0003456 0.0002409 0.0000959 0.0002493 0.0006287 0.0001521 0.0002364 0.0001320 0.0001864 0.0001539 0.0003783 0.0000779 0.0002733 0.0001119 0.0002606 0.0001488 0.0000268 0.0001677 0.0003894 0.0002197 0.0001818 0.0001818 0.0004515 -0.0000147 -0.0007419 0.0002269 0.0006050 0.0001199 -0.0002997 0.0035228 0.0014163 0.0002091 0.0003629 0.0066676 0.0038006
0.0000880 0.0002382 0.0001738 0.0001944 -0.0000233 0.0002766 0.0002439 -0.0001047 0.0002527 0.0005745 0.0001517 0.0001057 0.0001409 0.0001092 0.0001637 0.0003394 0.0000845 0.0002255 0.0001131 0.0002375 0.0001614 -0.0001309 0.0001777 0.0002556 0.0002318 -0.0000234 0.0001858 0.0003570 -0.0000168 -0.0007876 0.0002364 0.0003632 0.0001174 -0.0003254 0.0028672 -0.0026209 0.0002115 0.0001064 0.0105433 -0.0125898
0.0000906 0.0002119 0.0001771 0.0001731 -0.0000314 0.0002357 0.0002422 -0.0001653 0.0002600 0.0006074 0.0001575 0.0001146 0.0001495 0.0001173 0.0001688 0.0003597 0.0000869 0.0002195 0.0001079 0.0002702 0.0001689 -0.0000386 0.0001689 0.0002580 0.0002316 0.0000187 0.0001842 0.0004001 -0.0000272 -0.0007225 0.0002311 0.0004222 0.0001202 -0.0002819 0.0033259 -0.0004747 0.0001970 0.0002052 0.0092082 -0.0159345
0.0000920 0.0002673 0.0001744 0.0002424 -0.0000418 0.0003032 0.0002500 -0.0000310 0.0002450 0.0006852 0.0001585 0.0002364 0.0001438 0.0001960 0.0001621 0.0004351 0.0000805 0.0002731 0.0001002 0.0003362 0.0001595 0.0000836 0.0001578 0.0003082 0.0002258 0.0001734 0.0001794 0.0004949 -0.0000377 -0.0006111 0.0002209 0.0005840 0.0001207 -0.0002014 0.0067275 0.0016228 0.0001793 0.0003879 0.0087210 -0.0150432
0.0000923 0.0003538 0.0001760 0.0003386 -0.0000520 0.0003843 0.0002434 0.0001155 0.0002246 0.0007709 0.0001449 0.0003996 0.0001223 0.0003111 0.0001580 0.0005198 0.0000724 0.0003484 0.0001008 0.0004094 0.0001546 0.0002060 0.0001561 0.0003903 0.0002275 0.0003591 0.0001696 0.0006180 -0.0000655 -0.0004727 0.0002031 0.0008182 0.0001172 -0.0000930 0.0082878 0.0006373 0.0001606 0.0006155 0.0066115 -0.0129021
0.0000919 0.0004616 0.0001718 0.0004599 -0.0000748 0.0004645 0.0002122 0.0002934 0.0002093 0.0008473 0.0001322 0.0004957 0.0001080 0.0003983 0.0001496 0.0005724 0.0000611 0.0004047 0.0000937 0.0004650 0.0001373 0.0001745 0.0001373 0.0003968 0.0002147 0.0003605 0.0001635 0.0006273 -0.0000702 -0.0004267 0.0001948 0.0007548 0.0001183 -0.0000771 0.0146218 -0.0118695 0.0001437 0.0004962 0.0022401 0.0011764
0.0000930 0.0004657 0.0001673 0.0004773 -0.0000829 0.0003694 0.0002037 0.0001496 0.0002128 0.0007917 0.0001292 0.0003661 0.0001297 0.0003323 0.0001517 0.0005477 0.0000820 0.0003697 0.0001004 0.0004620 0.0001358 0.0000468 0.0001413 0.0002883 0.0002159 0.0002065 0.0001669 0.0005567 -0.0000613 -0.0004391 0.0001998 0.0005346 0.0001209 -0.0000993 0.0083356 -0.0141148 0.0001482 0.0002683 -0.0004720 0.0122424
0.0000965 0.0004333 0.0001718 0.0004507 -0.0000836 0.0002465 0.0001975 0.0000111 0.0002240 0.0007559 0.0001320 0.0002922 0.0001458 0.0003010 0.0001572 0.0005583 0.0000944 0.0003555 0.0001098 0.0004771 0.0001454 0.0001013 0.0001418 0.0002747 0.0002248 0.0002266 0.0001673 0.0005939 -0.0000627 -0.0003789 0.0001960 0.0005908 0.0001196 -0.0000399 -0.0101259 0.0011565 0.0001443 0.0003304 -0.0065986 0.0166972
0.0000966 0.0004617 0.0001735 0.0004991 -0.0000900 0.0003008 0.0001909 0.0001297 0.0002065 0.0008298 0.0001317 0.0003965 0.0001500 0.0003899 0.0001507 0.0006159 0.0000732 0.0004281 0.0001003 0.0005555 0.0001335 0.0002182 0.0001263 0.0003496 0.0002189 0.0003601 0.0001544 0.0007087 -0.0000661 -0.0002793 0.0001883 0.0007516 0.0001154 0.0000264 0.0003315 -0.0051011 0.0001292 0.0004761 0.0013837 0.0091890
0.0000906 0.0004985 0.0001687 0.0005700 -0.0000919 0.0003916 0.0001941 0.0002461 0.0001938 0.0008965 0.0001150 0.0005217 0.0001482 0.0005164 0.0001495 0.0006684 0.0000626 0.0005309 0.0001061 0.0006475 0.0001232 0.0003436 0.0001222 0.0004552 0.0002111 0.0005288 0.0001467 0.0008558 -0.0000697 -0.0001338 0.0001737 0.0009455 0.0001109 0.0001137 0.0003041 -0.0015187 0.0001215 0.0007009 0.0068873 0.0078816
0.0000928 0.0005883 0.0001710 0.0006784 -0.0000918 0.0004652 0.0001815 0.0004630 0.0001931 0.0009944 0.0000965 0.0006565 0.0001298 0.0006870 0.0001501 0.0007490 0.0000793 0.0005944 0.0001161 0.0007430 0.0001211 0.0003889 0.0001122 0.0004823 0.0002026 0.0005824 0.0001514 0.0008883 -0.0000593 -0.0000438 0.0001658 0.0009008 0.0001161 0.0001649 -0.0067562 0.0077269 0.0001245 0.0006004 0.0023470 0.0035769
0.0000930 0.0005962 0.0001764 0.0007027 -0.0000935 0.0003812 0.0001672 0.0003525 0.0001882 0.0009752 0.0000923 0.0005141 0.0001357 0.0006365 0.0001493 0.0007377 0.0000745 0.0005819 0.0001228 0.0007509 0.0001218 0.0002759 0.0001078 0.0003854 0.0002026 0.0004265 0.0001593 0.0008209 -0.0000611 -0.0000268 0.0001664 0.0006775 0.0001202 0.0001508 0.0003158 0.0076173 0.0001334 0.0003730 0.0006409 -0.0116804
0.0000883 0.0005458 0.0001801 0.0006697 -0.0000973 0.0002832 0.0001649 0.0001455 0.0001961 0.0009287 0.0000852 0.0003646 0.0001484 0.0005535 0.0001538 0.0007107 0.0000632 0.0005705 0.0001292 0.0007458 0.0001310 0.0002717 0.0001112 0.0003274 0.0002069 0.0003669 0.0001546 0.0008478 -0.0000728 0.0000462 0.0001566 0.0006761 0.0001163 0.0001921 0.0062442 0.0065534 0.0001334 0.0004392 -0.0024941 -0.0057008
0.0000931 0.0005772 0.0001808 0.0007051 -0.0001005 0.0002971 0.0001642 0.0002927 0.0002094 0.0009808 0.0000819 0.0004321 0.0001568 0.0006351 0.0001527 0.0007493 0.0000745 0.0005890 0.0001286 0.0008168 0.0001314 0.0003943 0.0000977 0.0003682 0.0001966 0.0004767 0.0001489 0.0009638 -0.0000720 0.0001674 0.0001448 0.0007994 0.0001173 0.0002688 0.0017375 0.0041913 0.0001208 0.0006400 -0.0068778 -0.0053428
0.0001076 0.0006744 0.0001767 0.0007751 -0.0000847 0.0003640 0.0001721 0.0004893 0.0001936 0.0010422 0.0000747 0.0005120 0.0001586 0.0007250 0.0001490 0.0007972 0.0000577 0.0006783 0.0001271 0.0008983 0.0001200 0.0004975 0.0000985 0.0004237 0.0001906 0.0006155 0.0001468 0.0010689 -0.0000817 0.0002753 0.0001334 0.0009660 0.0001197 0.0003629 -0.0127101 0.0033092 0.0001058 0.0008486 -0.0174509 0.0055273
0.0001059 0.0007552 0.0001732 0.0008652 -0.0000919 0.0004615 0.0001503 0.0006355 0.0001660 0.0011098 0.0000554 0.0006607 0.0001332 0.0008409 0.0001376 0.0009001 0.0000506 0.0007700 0.0001239 0.0009778 0.0001056 0.0005930 0.0000959 0.0004836 0.0001928 0.0007479 0.0001301 0.0011109 -0.0001022 0.0003648 0.0001220 0.0010430 0.0001180 0.0004310 -0.0197874 0.0144708 0.0000952 0.0007264 -0.0152006 0.0132724
0.0000883 0.0007163 0.0001734 0.0008763 -0.0001142 0.0003558 0.0001267 0.0004515 0.0001656 0.0010479 0.0000507 0.0005293 0.0001314 0.0007716 0.0001338 0.0009007 0.0000655 0.0007194 0.0001244 0.0009704 0.0001031 0.0004800 0.0000785 0.0003944 0.0001928 0.0006072 0.0001240 0.0010287 -0.0000986 0.0003420 0.0001258 0.0008230 0.0001186 0.0004069 -0.0050894 0.0077366 0.0000788 0.0004762 -0.0148499 0.0263609
0.0000821 0.0006488 0.0001715 0.0008353 -0.0001218 0.0002196 0.0001283 0.0002219 0.0001708 0.0009953 0.0000477 0.0003249 0.0001360 0.0006836 0.0001487 0.0008389 0.0000709 0.0006433 0.0001311 0.0009321 0.0001160 0.0003800 0.0000801 0.0002564 0.0001966 0.0004404 0.0001318 0.0009577 -0.0000739 0.0002987 0.0001304 0.0006749 0.0001199 0.0003932 0.0067225 -0.0104814 0.0000632 0.0004657 -0.0084613 0.0203164
0.0000793 0.0006360 0.0001698 0.0008432 -0.0001362 0.0002397 0.0001242 0.0002946 0.0001740 0.0010157 0.0000448 0.0003541 0.0001479 0.0007238 0.0001493 0.0008551 0.0000656 0.0006469 0.0001356 0.0009544 0.0001119 0.0004583 0.0000650 0.0002721 0.0002004 0.0005134 0.0001391 0.0009985 -0.0000781 0.0003605 0.0001183 0.0007752 0.0001133 0.0004396 0.0027310 0.0047781 0.0000498 0.0005776 0.0014495 -0.0015930
0.0000773 0.0006605 0.0001693 0.0008813 -0.0001318 0.0002944 0.0001229 0.0004154 0.0001580 0.0010364 0.0000448 0.0004215 0.0001603 0.0007790 0.0001400 0.0008938 0.0000528 0.0006949 0.0001288 0.0010097 0.0000946 0.0005392 0.0000397 0.0003203 0.0001945 0.0006377 0.0001322 0.0010937 -0.0000911 0.0004480 0.0001028 0.0009278 0.0001070 0.0005098 0.0035770 0.0003440 0.0000294 0.0007468 -0.0057789 0.0048414
0.0000746 0.0007196 0.0001639 0.0009485 -0.0001235 0.0003872 0.0001178 0.0005612 0.0001273 0.0011110 0.0000333 0.0005551 0.0001454 0.0009055 0.0001296 0.0009584 0.0000463 0.0007890 0.0001218 0.0010897 0.0000818 0.0006494 0.0000323 0.0003802 0.0001827 0.0008097 0.0001162 0.0012234 -0.0001035 0.0005616 0.0000814 0.0011202 0.0001020 0.0005876 0.0025915 -0.0014676 0.0000092 0.0007828 0.0033720 -0.0053259
0.0000715 0.0007314 0.0001599 0.0009743 -0.0001184 0.0003740 0.0000974 0.0005014 0.0001326 0.0010497 0.0000241 0.0004380 0.0001487 0.0008727 0.0001249 0.0009391 0.0000482 0.0007849 0.0001284 0.0010993 0.0000692 0.0005199 0.0000306 0.0002883 0.0001723 0.0006862 0.0001157 0.0011943 -0.0001062 0.0005665 0.0000722 0.0009217 0.0001016 0.0005621 0.0059368 -0.0025242 -0.0000410 0.0004239 0.0038883 -0.0132920
0.0000698 0.0006614 0.0001685 0.0009379 -0.0001182 0.0002151 0.0000924 0.0002402 0.0001498 0.0009439 -0.0000034 0.0001150 0.0001843 0.0008040 0.0001297 0.0008805 0.0000383 0.0007289 0.0001412 0.0010930 0.0000403 0.0002955 0.0000130 0.0000920 0.0001421 0.0003797 0.0001365 0.0011557 -0.0000924 0.0005370 0.0000478 0.0005831 0.0000990 0.0005102 0.0065290 -0.0099297 -0.0000932 0.0001127 0.0049628 -0.0148618
0.0000671 0.0006200 0.0001768 0.0009341 -0.0001015 0.0002574 0.0000947 0.0001894 0.0001505 0.0009515 -0.0000121 0.0001128 0.0002075 0.0008663 0.0001263 0.0009013 0.0000410 0.0007450 0.0001494 0.0011576 0.0000177 0.0002835 -0.0000124 0.0000843 0.0001144 0.0003576 0.0001425 0.0012426 -0.0000875 0.0006284 0.0000197 0.0006443 0.0001003 0.0005629 -0.0051658 -0.0007953 -0.0000979 0.0002157 0.0074487 -0.0228684
0.0000579 0.0006333 0.0001715 0.0009598 -0.0000763 0.0004593 0.0000829 0.0002988 0.0001305 0.0009914 0.0000326 0.0003664 0.0001659 0.0008907 0.0001227 0.0009391 0.0000491 0.0008134 0.0001532 0.0012166 0.0000125 0.0003754 -0.0000150 0.0002426 0.0001036 0.0005136 0.0001383 0.0013060 -0.0000801 0.0007143 0.0000380 0.0008747 0.0001097 0.0006744 -0.0127848 0.0209176 -0.0000921 0.0005000 0.0069132 -0.0072665
0.0000523 0.0006737 0.0001595 0.0009823 -0.0000659 0.0005820 0.0000775 0.0004499 0.0001159 0.0010378 0.0000488 0.0006072 0.0001190 0.0009342 0.0001086 0.0009889 0.0000275 0.0009740 0.0001525 0.0012522 0.0000028 0.0005107 -0.0000044 0.0004361 0.0000930 0.0006784 0.0001323 0.0014047 -0.0000816 0.0008133 0.0000522 0.0011362 0.0001190 0.0008174 -0.0052198 0.0218666 -0.0000813 0.0006938 0.0049636 0.0112788
0.0000540 0.0006899 0.0001497 0.0009874 -0.0000747 0.0005714 0.0000561 0.0004674 0.0001254 0.0010037 0.0000371 0.0005145 0.0001262 0.0008997 0.0001023 0.0009649 0.0000412 0.0010018 0.0001571 0.0012294 0.0000057 0.0004419 -0.0000002 0.0004484 0.0000917 0.0005879 0.0001384 0.0013599 -0.0000554 0.0008234 0.0000546 0.0010074 0.0001308 0.0008312 0.0067104 0.0035956 -0.0000601 0.0005557 -0.0077579 0.0123609
0.0000554 0.0006309 0.0001490 0.0009325 -0.0000773 0.0004511 0.0000556 0.0002989 0.0001394 0.0009727 0.0000357 0.0002779 0.0001612 0.0008221 0.0001139 0.0009139 0.0000637 0.0009528 0.0001614 0.0011708 0.0000294 0.0003802 0.0000093 0.0003889 0.0001004 0.0004378 0.0001613 0.0012645 -0.0000126 0.0007902 0.0000633 0.0007666 0.0001363 0.0008043 0.0073673 0.0037256 -0.0000525 0.0004718 -0.0087647 -0.0025062
0.0000592 0.0005881 0.0001511 0.0008925 -0.0000676 0.0003968 0.0000803 0.0002668 0.0001462 0.0010261 0.0000304 0.0002859 0.0001603 0.0008781 0.0001172 0.0009167 0.0000609 0.0010074 0.0001592 0.0011478 0.0000481 0.0004886 0.0000232 0.0004244 0.0001118 0.0004811 0.0001631 0.0013170 -0.0000221 0.0008648 0.0000654 0.0008402 0.0001409 0.0008729 0.0024723 -0.0076628 -0.0000494 0.0006274 0.0028335 -0.0065246
0.0000659 0.0006087 0.0001493 0.0009122 -0.0000683 0.0004446 0.0000674 0.0004176 0.0001453 0.0010829 0.0000268 0.0003704 0.0001627 0.0009391 0.0001095 0.0009504 0.0000540 0.0010784 0.0001521 0.0011644 0.0000479 0.0006044 0.0000286 0.0004945 0.0001170 0.0005836 0.0001592 0.0014001 -0.0000271 0.0009514 0.0000637 0.0009591 0.0001456 0.0009530 -0.0005265 -0.0117103 -0.0000551 0.0008022 0.0029180 -0.0077411
0.0000735 0.0006616 0.0001511 0.0009658 -0.0000637 0.0005093 0.0000513 0.0005892 0.0001466 0.0011492 0.0000203 0.0004706 0.0001745 0.0010295 0.0001027 0.0010202 0.0000475 0.0011539 0.0001450 0.0011976 0.0000465 0.0007565 0.0000294 0.0005986 0.0001155 0.0007371 0.0001554 0.0014997 -0.0000181 0.0010539 0.0000553 0.0010914 0.0001386 0.0010303 0.0005849 0.0132612 -0.0000690 0.0008603 0.0001862 -0.0208606
0.0000761 0.0006739 0.0001572 0.0009873 -0.0000616 0.0004623 0.0000414 0.0005195 0.0001468 0.0011254 0.0000103 0.0003675 0.0001674 0.0010159 0.0001125 0.0009894 0.0000729 0.0011143 0.0001549 0.0011666 0.0000615 0.0006873 0.0000379 0.0005275 0.0001222 0.0006138 0.0001552 0.0014342 -0.0000148 0.0010198 0.0000487 0.0009092 0.0001329 0.0010034 -0.0014374 0.0064604 -0.0000560 0.0006705 -0.0052367 -0.0010494
0.0000737 0.0006088 0.0001585 0.0009353 -0.0000567 0.0004035 0.0000340 0.0003596 0.0001493 0.0010891 0.0000250 0.0002306 0.0001694 0.0008867 0.0001232 0.0009324 0.0000720 0.0010539 0.0001625 0.0011114 0.0001056 0.0006978 0.0000393 0.0004636 0.0001290 0.0004498 0.0001655 0.0013108 0.0000092 0.0009183 0.0000609 0.0006947 0.0001413 0.0009386 -0.0018218 -0.0014596 -0.0000459 0.0005870 -0.0044316 0.0097283
0.0000695 0.0005715 0.0001618 0.0009016 -0.0000357 0.0004947 0.0000456 0.0003412 0.0001523 0.0011089 0.0000625 0.0003759 0.0001496 0.0007997 0.0001185 0.0009452 0.0000579 0.0010615 0.0001571 0.0011018 0.0001421 0.0008528 0.0000397 0.0005402 0.0001270 0.0005114 0.0001690 0.0012971 0.0000268 0.0009092 0.0000784 0.0007857 0.0001390 0.0009492 -0.0088773 0.0162582 -0.0000489 0.0006905 0.0133073 -0.0185409
0.0000381 0.0005258 0.0001662 0.0009075 -0.0000514 0.0005557 0.0000159 0.0003474 0.0001404 0.0011005 0.0001058 0.0006106 0.0001115 0.0007508 0.0001113 0.0009648 0.0000722 0.0010557 0.0001454 0.0010879 0.0001488 0.0009018 0.0000511 0.0006279 0.0001259 0.0006118 0.0001615 0.0013213 0.0000163 0.0009377 0.0000874 0.0009500 0.0001293 0.0009766 -0.0175969 0.0146741 -0.0000484 0.0007990 0.0130144 -0.0288665
0.0000122 0.0005152 0.0001657 0.0009546 -0.0000662 0.0006360 -0.0000093 0.0004404 0.0001246 0.0011212 0.0001448 0.0008712 0.0000904 0.0007717 0.0001109 0.0010086 0.0000572 0.0010988 0.0001303 0.0010926 0.0001522 0.0010082 0.0000445 0.0007760 0.0001194 0.0007722 0.0001496 0.0013790 -0.0000074 0.0010035 0.0000915 0.0011375 0.0001246 0.0010008 -0.0144563 0.0198889 -0.0000608 0.0008284 -0.0001603 -0.0086927
0.0000226 0.0005418 0.0001656 0.0009721 -0.0000431 0.0006680 -0.0000027 0.0003714 0.0001140 0.0010505 0.0001563 0.0008564 0.0000792 0.0006816 0.0001142 0.0009709 0.0000410 0.0010776 0.0001275 0.0010545 0.0001646 0.0008984 0.0000497 0.0007299 0.0001256 0.0006550 0.0001496 0.0012703 -0.0000162 0.0009381 0.0001016 0.0009582 0.0001225 0.0009307 -0.0113196 0.0215042 -0.0000464 0.0006515 0.0001881 -0.0100711
0.0000375 0.0004944 0.0001698 0.0009037 -0.0000335 0.0005871 -0.0000078 0.0002283 0.0001290 0.0009486 0.0001717 0.0007130 0.0000825 0.0005423 0.0001246 0.0009005 0.0000567 0.0010015 0.0001308 0.0009908 0.0001936 0.0008377 0.0000647 0.0006269 0.0001349 0.0004846 0.0001568 0.0011442 -0.0000054 0.0008270 0.0001142 0.0007489 0.0001188 0.0008364 -0.0023784 0.0079486 -0.0000113 0.0005771 -0.0021111 -0.0101890
0.0000408 0.0004684 0.0001738 0.0008597 -0.0000197 0.0005873 0.0000096 0.0002907 0.0001430 0.0009490 0.0002063 0.0008219 0.0000909 0.0005078 0.0001290 0.0009009 0.0000492 0.0010247 0.0001309 0.0009722 0.0002287 0.0009984 0.0000645 0.0006908 0.0001337 0.0005456 0.0001585 0.0011548 0.0000065 0.0007830 0.0001217 0.0008417 0.0001087 0.0008133 0.0142287 -0.0213595 -0.0000049 0.0006762 0.0013744 -0.0068884
0.0000326 0.0004679 0.0001739 0.0008742 -0.0000067 0.0006508 0.0000232 0.0003940 0.0001251 0.0009857 0.0002277 0.0010193 0.0000717 0.0005348 0.0001257 0.0009236 0.0000365 0.0010547 0.0001294 0.0009645 0.0002418 0.0010836 0.0000702 0.0007739 0.0001370 0.0006208 0.0001582 0.0011736 0.0000044 0.0007705 0.0001225 0.0009405 0.0000978 0.0008141 0.0098491 -0.0171840 -0.0000078 0.0007805 -0.0106298 0.0113692
0.0000279 0.0004859 0.0001715 0.0009277 -0.0000046 0.0007437 0.0000140 0.0005146 0.0000996 0.0010473 0.0002401 0.0012224 0.0000618 0.0005926 0.0001226 0.0009782 0.0000411 0.0010822 0.0001244 0.0009773 0.0002308 0.0011820 0.0000632 0.0008956 0.0001274 0.0007618 0.0001558 0.0012265 -0.0000067 0.0007924 0.0001211 0.0010548 0.0000869 0.0008216 -0.0090213 0.0167318 -0.0000091 0.0007606 -0.0089403 0.0086487
0.0000236 0.0004776 0.0001751 0.0009417 -0.0000010 0.0006913 0.0000110 0.0003841 0.0000874 0.0010059 0.0002508 0.0011623 0.0000554 0.0005329 0.0001267 0.0009489 0.0000336 0.0010718 0.0001326 0.0009225 0.0002488 0.0010884 0.0000726 0.0008415 0.0001340 0.0006325 0.0001671 0.0011212 0.0000067 0.0006654 0.0001348 0.0008483 0.0000808 0.0007360 -0.0047726 0.0092775 0.0000046 0.0005212 -0.0014975 -0.0107037
0.0000180 0.0003816 0.0001831 0.0008716 0.0000098 0.0005605 0.0000045 0.0001664 0.0001075 0.0009320 0.0002621 0.0010050 0.0000613 0.0004209 0.0001424 0.0008807 0.0000480 0.0010019 0.0001375 0.0008465 0.0002948 0.0010249 0.0001005 0.0007176 0.0001591 0.0004070 0.0001769 0.0009751 0.0000106 0.0005289 0.0001416 0.0005952 0.0000781 0.0006324 -0.0025893 0.0040725 0.0000248 0.0004018 0.0032286 -0.0153920
0.0000134 0.0003161 0.0001880 0.0008321 0.0000112 0.0005325 -0.0000019 0.0001678 0.0001258 0.0009197 0.0002707 0.0010405 0.0000776 0.0003979 0.0001484 0.0008821 0.0000609 0.0010024 0.0001303 0.0008216 0.0003146 0.0011288 0.0001054 0.0007406 0.0001637 0.0004267 0.0001748 0.0009648 0.0000082 0.0004832 0.0001419 0.0006293 0.0000688 0.0005981 -0.0058764 0.0091248 0.0000145 0.0004938 0.0001488 -0.0160422
0.0000091 0.0003214 0.0001865 0.0008473 0.0000043 0.0005439 -0.0000020 0.0002463 0.0001180 0.0009191 0.0002719 0.0011476 0.0000527 0.0004391 0.0001372 0.0009077 0.0000451 0.0010450 0.0001196 0.0008230 0.0003139 0.0011811 0.0001102 0.0007904 0.0001651 0.0004945 0.0001754 0.0009798 0.0000144 0.0004478 0.0001444 0.0007216 0.0000559 0.0006016 0.0061346 -0.0123597 0.0000031 0.0006219 -0.0149368 -0.0012973
0.0000119 0.0003596 0.0001875 0.0008883 -0.0000124 0.0005692 -0.0000193 0.0004181 0.0000986 0.0009724 0.0002585 0.0012402 0.0000436 0.0005359 0.0001335 0.0009520 0.0000428 0.0010813 0.0001100 0.0008564 0.0002902 0.0012497 0.0000972 0.0008822 0.0001611 0.0006097 0.0001666 0.0010277 -0.0000006 0.0004732 0.0001326 0.0008148 0.0000507 0.0006192 0.0128175 -0.0075032 0.0000150 0.0005608 -0.0145009 0.0084669
0.0000206 0.0003526 0.0001919 0.0008793 -0.0000338 0.0004508 -0.0000242 0.0003219 0.0001065 0.0009023 0.0002236 0.0009338 0.0000790 0.0004845 0.0001375 0.0009090 0.0000554 0.0010142 0.0001166 0.0008093 0.0002669 0.0010754 0.0000976 0.0007704 0.0001708 0.0004464 0.0001683 0.0009093 0.0000012 0.0003942 0.0001315 0.0005491 0.0000556 0.0005308 0.0074748 -0.0039149 0.0000309 0.0003087 -0.0137026 0.0056970
0.0000293 0.0002900 0.0001983 0.0007894 -0.0000457 0.0002465 0.0000030 0.0000876 0.0001310 0.0008010 0.0001818 0.0005170 0.0001020 0.0004009 0.0001498 0.0008224 0.0000560 0.0008981 0.0001329 0.0007323 0.0002695 0.0008789 0.0001128 0.0005402 0.0001928 0.0001996 0.0001773 0.0007626 0.0000218 0.0002604 0.0001223 0.0002533 0.0000572 0.0004228 0.0103792 -0.0176262 0.0000446 0.0001675 0.0021452 -0.0093197
0.0000371 0.0002740 0.0002009 0.0007432 -0.0000606 0.0001637 0.0000094 0.0001086 0.0001329 0.0008068 0.0001478 0.0004026 0.0001106 0.0004456 0.0001576 0.0008121 0.0000535 0.0008571 0.0001349 0.0007183 0.0002579 0.0009016 0.0000993 0.0004944 0.0001875 0.0002307 0.0001757 0.0007691 0.0000268 0.0002241 0.0001090 0.0002922 0.0000488 0.0004101 0.0094817 0.0021924 0.0000415 0.0002071 0.0085497 -0.0177433
0.0000412 0.0003007 0.0002002 0.0007664 -0.0000701 0.0001833 0.0000118 0.0001943 0.0001116 0.0008105 0.0001333 0.0004222 0.0001173 0.0004823 0.0001496 0.0008300 0.0000354 0.0008687 0.0001176 0.0007266 0.0002346 0.0008968 0.0000898 0.0005144 0.0001817 0.0003141 0.0001725 0.0007785 0.0000272 0.0002248 0.0001155 0.0003914 0.0000403 0.0004227 0.0030691 0.0123443 0.0000367 0.0003245 0.0054584 -0.0104494
0.0000407 0.0003403 0.0001993 0.0007987 -0.0000688 0.0002609 0.0000121 0.0003198 0.0000945 0.0008376 0.0001264 0.0005439 0.0001029 0.0005527 0.0001386 0.0008637 0.0000081 0.0009195 0.0001001 0.0007673 0.0002148 0.0008866 0.0000772 0.0005659 0.0001851 0.0003987 0.0001596 0.0008079 0.0000128 0.0002627 0.0001149 0.0004792 0.0000340 0.0004246 -0.0015908 0.0041538 0.0000616 0.0002306 0.0070394 -0.0029667
0.0000367 0.0003043 0.0001917 0.0007495 -0.0000662 0.0002116 0.0000132 0.0002097 0.0001065 0.0007541 0.0001313 0.0003990 0.0001025 0.0004976 0.0001457 0.0007922 0.0000214 0.0008513 0.0001041 0.0007548 0.0002119 0.0007522 0.0000727 0.0004650 0.0001861 0.0002485 0.0001689 0.0007280 0.0000123 0.0002025 0.0001169 0.0002796 0.0000330 0.0003393 -0.0176438 0.0269027 0.0000910 -0.0000050 0.0009354 0.0044938
0.0000383 0.0002162 0.0001922 0.0006507 -0.0000443 0.0000758 0.0000461 -0.0000311 0.0001220 0.0006337 0.0001330 0.0001505 0.0001154 0.0003538 0.0001513 0.0006954 0.0000377 0.0007285 0.0001090 0.0006915 0.0002281 0.0006253 0.0000838 0.0002648 0.0001942 0.0000443 0.0001888 0.0005810 0.0000305 0.0000508 0.0001276 0.0000457 0.0000331 0.0002422 -0.0203270 0.0327846 0.0001188 -0.0000843 -0.0193463 0.0247254
0.0000853 0.0002844 0.0001957 0.0006150 -0.0000153 0.0000660 0.0000722 0.0000466 0.0001186 0.0005782 0.0001168 0.0001117 0.0001088 0.0003384 0.0001466 0.0006849 0.0000393 0.0006797 0.0001001 0.0006444 0.0002169 0.0005716 0.0000761 0.0001770 0.0002070 0.0000286 0.0001764 0.0005389 0.0000092 -0.0000327 0.0001246 0.0000611 0.0000327 0.0002188 -0.0092302 0.0119591 0.0001429 -0.0000991 -0.0163339 0.0186765
0.0001057 0.0003407 0.0001934 0.0006182 -0.0000237 0.0000483 0.0000710 0.0001526 0.0000978 0.0005116 0.0001143 0.0001205 0.0001080 0.0003436 0.0001415 0.0006768 0.0000303 0.0006731 0.0000857 0.0006202 0.0001693 0.0004459 0.0000581 0.0001565 0.0002019 0.0000550 0.0001592 0.0005446 -0.0000210 -0.0000727 0.0001191 0.0001517 0.0000282 0.0002400 -0.0090998 0.0059587 0.0001435 -0.0000411 0.0178080 -0.0290916
0.0000785 0.0002997 0.0001800 0.0006275 -0.0000650 -0.0000597 0.0000710 0.0002454 0.0000614 0.0004775 0.0000883 0.0001688 0.0001097 0.0004234 0.0001205 0.0006761 0.0000054 0.0007279 0.0000751 0.0006517 0.0001295 0.0003652 0.0000438 0.0001793 0.0001955 0.0001261 0.0001514 0.0005354 -0.0000448 -0.0000927 0.0001180 0.0001648 0.0000228 0.0002504 -0.0044613 0.0148053 0.0001533 -0.0001652 0.0243457 -0.0394658
0.0001115 0.0003233 0.0001752 0.0005807 -0.0000594 -0.0002170 0.0001013 0.0002119 0.0000443 0.0003581 0.0000544 -0.0000544 0.0001243 0.0004013 0.0001157 0.0006015 0.0000114 0.0006567 0.0000827 0.0006325 0.0001409 0.0002497 0.0000364 0.0000264 0.0002131 -0.0000363 0.0001524 0.0004273 -0.0000454 -0.0001979 0.0001112 -0.0001109 0.0000245 0.0001940 0.0039222 0.0048395 0.0001725 -0.0004322 0.0083308 -0.0206395
0.0001912 0.0004466 0.0001857 0.0005116 -0.0000216 -0.0003364 0.0001565 0.0001152 0.0000624 0.0002284 0.0000546 -0.0003527 0.0001374 0.0002485 0.0001123 0.0004788 0.0000195 0.0005137 0.0000838 0.0005822 0.0001717 0.0001791 0.0000376 -0.0001746 0.0002225 -0.0002893 0.0001435 0.0002813 -0.0000331 -0.0002921 0.0001023 -0.0003541 0.0000449 0.0002433 0.0203136 -0.0494639 0.0001954 -0.0004470 -0.0001124 -0.0032526
0.0002139 0.0004929 0.0001570 0.0004069 -0.0000283 -0.0004571 0.0001879 0.0002025 0.0000344 0.0001031 0.0000345 -0.0004311 0.0000722 0.0000974 0.0000612 0.0003955 0.0000259 0.0005256 0.0000695 0.0006543 0.0001705 0.0001810 0.0000576 -0.0001262 0.0001927 -0.0004202 0.0000875 0.0001778 0.0000081 -0.0000350 0.0000575 -0.0004497 0.0000998 0.0005909 0.0044246 -0.0236615 0.0002350 -0.0002345 0.0048138 -0.0032333
0.0001575 0.0003944 0.0000734 0.0002520 -0.0000612 -0.0005963 0.0001657 0.0003641 -0.0000386 -0.0000846 0.0000154 -0.0004156 -0.0000654 -0.0001327 -0.0000118 0.0003466 0.0000492 0.0007025 0.0000510 0.0008013 0.0001453 0.0001842 0.0000870 0.0001699 0.0001311 -0.0004741 0.0000030 0.0000787 0.0001036 0.0004815 0.0000031 -0.0004732 0.0001442 0.0009841 0.0031630 -0.0217765 0.0002496 0.0000612 0.0013049 -0.0022487
0.0000974 0.0003786 -0.0000141 0.0001824 -0.0001164 -0.0007618 0.0001286 0.0004790 -0.0001157 -0.0001856 -0.0000328 -0.0005067 -0.0001688 -0.0002133 -0.0000714 0.0003096 0.0000398 0.0008814 0.0000304 0.0008961 0.0000428 -0.0000321 0.0000764 0.0001937 -0.0000244 -0.0008445 -0.0000525 -0.0000097 0.0001618 0.0007542 -0.0001640 -0.0011184 0.0001375 0.0010614 0.0104144 -0.0158810 0.0000945 -0.0007122 -0.0048463 -0.0027681
-0.0000109 0.0001136 -0.0000538 0.0001113 -0.0001860 -0.0011188 -0.0000041 0.0000563 -0.0001447 -0.0003099 -0.0000607 -0.0007992 -0.0001786 -0.0002803 -0.0000799 0.0002092 0.0000513 0.0008465 0.0000115 0.0007756 0.0000115 -0.0003321 0.0000956 0.0001296 -0.0000629 -0.0012223 -0.0000676 -0.0001970 0.0001882 0.0007771 -0.0002215 -0.0016447 0.0001192 0.0009730 0.0060173 -0.0007415 0.0000470 -0.0014218 0.0092613 -0.0267010
-0.0001455 -0.0002995 -0.0000869 -0.0000401 -0.0002165 -0.0012982 -0.0001127 -0.0003811 -0.0001537 -0.0004922 -0.0000156 -0.0009188 -0.0001957 -0.0005025 -0.0000930 0.0000943 0.0000705 0.0007358 -0.0000427 0.0005171 0.0000656 -0.0003491 0.0001377 0.0003454 0.0000097 -0.0011587 -0.0000852 -0.0004166 0.0002247 0.0007990 -0.0001076 -0.0013625 0.0000945 0.0009099 -0.0015393 0.0012255 0.0001761 -0.0009682 0.0117493 -0.0229607
-0.0002054 -0.0004188 -0.0001331 -0.0001504 -0.0002006 -0.0011964 -0.0000953 -0.0003636 -0.0001820 -0.0006274 0.0000229 -0.0007900 -0.0002571 -0.0006644 -0.0001322 0.0000307 0.0000453 0.0006735 -0.0001151 0.0002690 0.0000697 -0.0003119 0.0001531 0.0004932 0.0000112 -0.0010282 -0.0001198 -0.0005180 0.0002263 0.0007992 -0.0000654 -0.0011308 0.0000519 0.0008397 -0.0136347 0.0184321 0.0002379 -0.0006339 0.0016837 -0.0031486
-0.0002212 -0.0003937 -0.0001601 -0.0001735 -0.0001767 -0.0010773 -0.0000911 -0.0002230 -0.0002085 -0.0006692 0.0000482 -0.0005861 -0.0003003 -0.0007200 -0.0001567 0.0000116 0.0000218 0.0005885 -0.0001700 0.0000503 0.0000740 -0.0002388 0.0001664 0.0006599 0.0000425 -0.0007876 -0.0001328 -0.0005349 0.0002165 0.0008057 -0.0000120 -0.0008015 0.0000244 0.0007939 -0.0159718 0.0214717 0.0002893 -0.0003368 -0.0042154 0.0097304
-0.0002166 -0.0002992 -0.0001704 -0.0001343 -0.0001446 -0.0009091 -0.0000665 -0.0000127 -0.0002295 -0.0006149 0.0000692 -0.0003940 -0.0003343 -0.0006877 -0.0001760 0.0000110 -0.0000187 0.0005412 -0.0002138 -0.0000847 0.0000751 -0.0002061 0.0001737 0.0007685 0.0000668 -0.0006448 -0.0001272 -0.0005865 0.0002129 0.0007859 0.0000275 -0.0006940 0.0000132 0.0007265 -0.0041139 -0.0000976 0.0003206 -0.0003145 -0.0080924 0.0113393
-0.0002031 -0.0002932 -0.0001730 -0.0001732 -0.0001120 -0.0008749 -0.0000233 -0.0001117 -0.0002119 -0.0006515 0.0000900 -0.0004642 -0.0003206 -0.0007565 -0.0001758 -0.0000711 -0.0000458 0.0004536 -0.0002288 -0.0002440 0.0001081 -0.0002755 0.0001960 0.0007100 0.0000936 -0.0007215 -0.0001247 -0.0006844 0.0002128 0.0006881 0.0000520 -0.0008147 0.0000052 0.0006109 -0.0009776 -0.0070528 0.0003513 -0.0004515 -0.0036892 0.0106316
-0.0001922 -0.0003573 -0.0001734 -0.0002626 -0.0000830 -0.0009472 -0.0000032 -0.0002645 -0.0001917 -0.0007345 0.0001030 -0.0006105 -0.0002842 -0.0008731 -0.0001836 -0.0001593 -0.0000419 0.0002854 -0.0002422 -0.0004213 0.0001452 -0.0002555 0.0002022 0.0006698 0.0001120 -0.0007395 -0.0001177 -0.0007215 0.0002241 0.0005931 0.0000683 -0.0008105 -0.0000056 0.0005289 -0.0027901 -0.0010421 0.0003636 -0.0003724 -0.0040065 0.0107606
-0.0001841 -0.0003630 -0.0001742 -0.0002874 -0.0000651 -0.0009125 0.0000067 -0.0001942 -0.0001863 -0.0007406 0.0001099 -0.0005632 -0.0002844 -0.0008715 -0.0001884 -0.0001963 -0.0000468 0.0001870 -0.0002695 -0.0005094 0.0001528 -0.0001767 0.0001869 0.0007243 0.0001128 -0.0006355 -0.0001137 -0.0007001 0.0002254 0.0005897 0.0000773 -0.0007124 -0.0000176 0.0005142 0.0091530 -0.0077245 0.0003521 -0.0002140 -0.0310689 0.0073867
-0.0001777 -0.0003363 -0.0001748 -0.0002656 -0.0000601 -0.0008307 0.0000177 -0.0001036 -0.0001825 -0.0006841 0.0001067 -0.0004588 -0.0002866 -0.0008024 -0.0001817 -0.0001959 -0.0000392 0.0001755 -0.0002752 -0.0005484 0.0001562 -0.0000887 0.0001859 0.0008005 0.0001218 -0.0005189 -0.0001124 -0.0006167 0.0002274 0.0006445 0.0000720 -0.0005544 -0.0000247 0.0005515 0.0090288 -0.0106889 0.0003461 -0.0000274 -0.0410438 0.0027049
-0.0001676 -0.0002709 -0.0001681 -0.0001919 -0.0000574 -0.0007216 0.0000112 0.0000746 -0.0001792 -0.0005860 0.0001041 -0.0003376 -0.0002947 -0.0007120 -0.0001859 -0.0001716 -0.0000474 0.0001883 -0.0002783 -0.0005782 0.0001555 -0.0000910 0.0001907 0.0008194 0.0001225 -0.0004902 -0.0001137 -0.0006062 0.0002327 0.0006406 0.0000692 -0.0005902 -0.0000306 0.0005374 0.0056368 -0.0073836 0.0003383 -0.0001006 -0.0229924 0.0288987
-0.0001603 -0.0002923 -0.0001632 -0.0002184 -0.0000483 -0.0007397 0.0000153 -0.0000196 -0.0001608 -0.0006118 0.0001122 -0.0004389 -0.0002891 -0.0007623 -0.0001817 -0.0002349 -0.0000488 0.0001052 -0.0002821 -0.0006670 0.0001798 -0.0001620 0.0001990 0.0007359 0.0001315 -0.0006020 -0.0001019 -0.0006588 0.0002429 0.0005453 0.0000815 -0.0007658 -0.0000329 0.0004708 0.0009306 0.0015844 0.0003376 -0.0002650 -0.0038302 0.0128213
-0.0001549 -0.0003501 -0.0001523 -0.0002846 -0.0000381 -0.0008238 0.0000226 -0.0002017 -0.0001510 -0.0006772 0.0001197 -0.0005578 -0.0002654 -0.0008097 -0.0001741 -0.0003067 -0.0000404 -0.0000025 -0.0002961 -0.0008266 0.0002095 -0.0001456 0.0002008 0.0006747 0.0001478 -0.0006591 -0.0000702 -0.0006046 0.0002368 0.0004398 0.0000837 -0.0007475 -0.0000386 0.0004323 -0.0041971 0.0051613 0.0003445 -0.0002379 0.0148745 -0.0275866
-0.0001484 -0.0003448 -0.0001357 -0.0002558 -0.0000308 -0.0008145 0.0000327 -0.0001365 -0.0001549 -0.0006567 0.0001246 -0.0005080 -0.0002363 -0.0007613 -0.0001722 -0.0003157 -0.0000535 -0.0000385 -0.0003231 -0.0009254 0.0002194 -0.0000545 0.0001973 0.0006945 0.0001492 -0.0005847 -0.0000430 -0.0004897 0.0002205 0.0004007 0.0000858 -0.0006213 -0.0000415 0.0003980 0.0028761 0.0009542 0.0003339 -0.0001225 0.0047465 -0.0057608
-0.0001331 -0.0003070 -0.0001172 -0.0001897 -0.0000124 -0.0007242 0.0000684 -0.0000275 -0.0001417 -0.0005536 0.0001276 -0.0004160 -0.0001979 -0.0006290 -0.0001742 -0.0002949 -0.0000533 -0.0000336 -0.0003198 -0.0009309 0.0002557 0.0001463 0.0002084 0.0007583 0.0001589 -0.0004391 -0.0000308 -0.0003429 0.0002078 0.0004746 0.0000885 -0.0004291 -0.0000418 0.0004098 -0.0057713 0.0108113 0.0003306 0.0000860 0.0065612 -0.0063786
-0.0001203 -0.0002407 -0.0000990 -0.0001045 -0.0000075 -0.0006006 0.0000718 0.0001075 -0.0001122 -0.0004358 0.0001170 -0.0003424 -0.0001872 -0.0005052 -0.0001762 -0.0003117 -0.0000453 -0.0000432 -0.0003129 -0.0009034 0.0002811 0.0001997 0.0002100 0.0007507 0.0001702 -0.0004364 -0.0000246 -0.0003357 0.0002000 0.0005191 0.0000858 -0.0004668 -0.0000468 0.0003847 -0.0101596 0.0141689 0.0003435 -0.0000017 0.0159844 -0.0299884
-0.0001172 -0.0002831 -0.0000871 -0.0001298 0.0000023 -0.0006488 0.0000694 -0.0000134 -0.0000783 -0.0004658 0.0001207 -0.0004930 -0.0001703 -0.0006022 -0.0001647 -0.0003995 -0.0000290 -0.0001267 -0.0003039 -0.0009232 0.0002879 0.0000851 0.0002132 0.0006600 0.0001801 -0.0005593 -0.0000168 -0.0004563 0.0002131 0.0004630 0.0000952 -0.0006557 -0.0000504 0.0002974 0.0059495 -0.0049216 0.0003519 -0.0001826 0.0067283 -0.0228098
-0.0001294 -0.0003989 -0.0000791 -0.0002076 -0.0000104 -0.0007903 0.0000692 -0.0002279 -0.0000811 -0.0005460 0.0001220 -0.0006240 -0.0001670 -0.0007076 -0.0001541 -0.0004712 -0.0000228 -0.0002192 -0.0003018 -0.0009905 0.0002824 0.0000090 0.0002124 0.0006066 0.0001856 -0.0005688 -0.0000220 -0.0005130 0.0002227 0.0004147 0.0001024 -0.0006477 -0.0000556 0.0002451 0.0040501 -0.0033906 0.0003472 -0.0001677 -0.0140415 0.0143649
-0.0001519 -0.0004655 -0.0000819 -0.0002109 -0.0000382 -0.0008042 0.0000579 -0.0001933 -0.0000971 -0.0005798 0.0001185 -0.0005875 -0.0001859 -0.0007281 -0.0001552 -0.0004944 -0.0000316 -0.0002754 -0.0003097 -0.0010098 0.0002441 -0.0000432 0.0001923 0.0006070 0.0001850 -0.0004703 -0.0000394 -0.0005350 0.0002205 0.0004433 0.0000973 -0.0005438 -0.0000569 0.0002350 -0.0090373 0.0108607 0.0003377 -0.0000849 -0.0271484 0.0310805
-0.0001463 -0.0004340 -0.0000886 -0.0001821 -0.0000177 -0.0006882 0.0000711 -0.0000730 -0.0001013 -0.0005618 0.0001263 -0.0004985 -0.0001938 -0.0007167 -0.0001645 -0.0004675 -0.0000472 -0.0002651 -0.0003137 -0.0009523 0.0002196 -0.0000093 0.0001832 0.0006664 0.0001899 -0.0003210 -0.0000472 -0.0005049 0.0002197 0.0005292 0.0001057 -0.0003841 -0.0000557 0.0002867 -0.0051869 -0.0062077 0.0003299 0.0001019 -0.0258603 0.0330242
-0.0001268 -0.0003438 -0.0000838 -0.0001202 0.0000172 -0.0005433 0.0000894 -0.0000022 -0.0000986 -0.0005208 0.0001268 -0.0004445 -0.0002011 -0.0007097 -0.0001667 -0.0004738 -0.0000653 -0.0002729 -0.0003224 -0.0009242 0.0002212 -0.0000989 0.0001805 0.0006211 0.0002019 -0.0003484 -0.0000471 -0.0005705 0.0002257 0.0005007 0.0001317 -0.0004193 -0.0000568 0.0002459 0.0064148 -0.0283775 0.0003438 -0.0000729 -0.0216311 0.0197181
-0.0001181 -0.0003865 -0.0000712 -0.0001748 0.0000620 -0.0003741 0.0000845 -0.0001731 -0.0000904 -0.0005552 0.0001645 -0.0004640 -0.0002074 -0.0008444 -0.0001528 -0.0005341 -0.0000435 -0.0004043 -0.0003068 -0.0009917 0.0002501 -0.0002076 0.0001785 0.0005029 0.0002157 -0.0004686 -0.0000392 -0.0007144 0.0002335 0.0003288 0.0001784 -0.0004692 -0.0000618 0.0001016 0.0031565 0.0011545 0.0003541 -0.0002610 0.0021832 0.0039186
-0.0001107 -0.0004469 -0.0000717 -0.0002870 0.0000986 -0.0001897 0.0000949 -0.0003305 -0.0000727 -0.0006029 0.0002148 -0.0003889 -0.0002176 -0.0010146 -0.0001362 -0.0005706 -0.0000399 -0.0005065 -0.0002864 -0.0010616 0.0002934 -0.0001283 0.0001934 0.0004544 0.0002265 -0.0004316 -0.0000247 -0.0007708 0.0002242 0.0001694 0.0002335 -0.0002935 -0.0000681 -0.0000055 0.0011555 0.0097814 0.0003604 -0.0001146 0.0047782 0.0053926
-0.0001006 -0.0004304 -0.0000799 -0.0003229 0.0000973 -0.0001112 0.0001121 -0.0002510 -0.0000594 -0.0005752 0.0002311 -0.0002395 -0.0002170 -0.0010284 -0.0001309 -0.0005713 -0.0000498 -0.0004919 -0.0002917 -0.0010924 0.0003183 -0.0000297 0.0002042 0.0005000 0.0002345 -0.0003260 -0.0000181 -0.0007292 0.0002134 0.0001103 0.0002614 -0.0000940 -0.0000746 -0.0000532 -0.0085064 0.0153206 0.0003817 0.0000289 -0.0055838 0.0139231
-0.0001287 -0.0005051 -0.0000774 -0.0003234 0.0000421 -0.0002463 0.0000962 -0.0002088 -0.0000389 -0.0005099 0.0002514 -0.0000906 -0.0002043 -0.0009329 -0.0001334 -0.0005440 -0.0000397 -0.0004118 -0.0003040 -0.0011426 0.0003123 0.0000576 0.0002066 0.0006435 0.0002257 -0.0002071 -0.0000197 -0.0006390 0.0002048 0.0000810 0.0002667 0.0000847 -0.0000813 -0.0000505 -0.0031508 0.0145843 0.0003574 0.0000713 0.0025986 0.0147911
-0.0001471 -0.0005093 -0.0000675 -0.0002914 -0.0001399 -0.0009355 0.0000859 -0.0002933 -0.0000184 -0.0005315 0.0002623 -0.0001232 -0.0001899 -0.0009617 -0.0001247 -0.0005860 -0.0000290 -0.0003927 -0.0003023 -0.0012329 0.0002974 -0.0000733 0.0002275 0.0006187 0.0002274 -0.0003376 -0.0000228 -0.0007415 0.0001871 -0.0000853 0.0002722 -0.0000782 -0.0000784 -0.0001422 0.0031345 0.0037448 0.0003391 -0.0002309 0.0113667 -0.0031430
-0.0001380 -0.0005537 -0.0000532 -0.0003474 -0.0002755 -0.0015599 0.0000776 -0.0005052 -0.0000042 -0.0006199 0.0002637 -0.0003367 -0.0001674 -0.0010565 -0.0001018 -0.0006729 -0.0000044 -0.0004587 -0.0002826 -0.0012814 0.0003080 -0.0002340 0.0002388 0.0004879 0.0002454 -0.0005456 -0.0000061 -0.0009230 0.0002102 -0.0002699 0.0002782 -0.0003454 -0.0000733 -0.0003030 0.0016792 -0.0123359 0.0003596 -0.0004727 0.0094723 -0.0219981
-0.0001671 -0.0008050 -0.0000477 -0.0004439 -0.0001975 -0.0012628 0.0000642 -0.0006757 0.0000162 -0.0006536 0.0002669 -0.0004657 -0.0001419 -0.0011129 -0.0000888 -0.0006833 -0.0000034 -0.0005195 -0.0002609 -0.0012224 0.0003117 -0.0002266 0.0002294 0.0004227 0.0002527 -0.0005324 0.0000057 -0.0009644 0.0002559 -0.0002587 0.0002770 -0.0003737 -0.0000706 -0.0003393 -0.0002278 -0.0121010 0.0003848 -0.0003035 -0.0141659 -0.0034166
-0.0001813 -0.0009084 -0.0000470 -0.0004551 -0.0000833 -0.0007888 0.0000951 -0.0005845 0.0000227 -0.0006056 0.0002494 -0.0005030 -0.0001439 -0.0010824 -0.0000757 -0.0006557 0.0000012 -0.0005359 -0.0002298 -0.0010847 0.0003127 -0.0001661 0.0002267 0.0003942 0.0002613 -0.0004498 0.0000120 -0.0009318 0.0002821 -0.0001440 0.0002599 -0.0003498 -0.0000626 -0.0002895 -0.0205681 0.0112350 0.0004165 -0.0000451 -0.0152524 0.0113570
-0.0001515 -0.0007775 -0.0000506 -0.0004132 -0.0000303 -0.0005948 0.0001441 -0.0003236 0.0000274 -0.0005029 0.0002267 -0.0004911 -0.0001449 -0.0009383 -0.0000730 -0.0006158 0.0000128 -0.0005146 -0.0002036 -0.0009418 0.0003050 -0.0000546 0.0002178 0.0004642 0.0002593 -0.0003025 0.0000201 -0.0008673 0.0003060 -0.0000282 0.0002392 -0.0002928 -0.0000499 -0.0002490 -0.0115002 0.0018861 0.0004445 0.0000338 -0.0007113 0.0066327
-0.0001268 -0.0006896 -0.0000641 -0.0004204 0.0000035 -0.0006017 0.0001784 -0.0003360 0.0000348 -0.0005298 0.0002144 -0.0006633 -0.0001244 -0.0009758 -0.0000644 -0.0006402 0.0000269 -0.0005653 -0.0001867 -0.0009204 0.0002915 -0.0001963 0.0002159 0.0003868 0.0002667 -0.0003495 0.0000341 -0.0009994 0.0003284 -0.0000783 0.0002568 -0.0005189 -0.0000460 -0.0003478 0.0012401 -0.0060428 0.0004906 -0.0001163 0.0028768 0.0005860
-0.0001245 -0.0007650 -0.0000784 -0.0005646 0.0000251 -0.0007192 0.0002153 -0.0005558 0.0000426 -0.0006698 0.0002142 -0.0009145 -0.0000921 -0.0011290 -0.0000280 -0.0006754 0.0000386 -0.0006655 -0.0001721 -0.0009796 0.0002926 -0.0004303 0.0002146 0.0002062 0.0003062 -0.0004365 0.0000642 -0.0011983 0.0003689 -0.0001930 0.0002937 -0.0007454 -0.0000488 -0.0005278 -0.0118238 0.0175223 0.0005571 -0.0001676 -0.0056494 0.0109333
-0.0001334 -0.0008421 -0.0001012 -0.0007288 0.0000341 -0.0007267 0.0002519 -0.0005855 0.0000322 -0.0007334 0.0002311 -0.0009535 -0.0000928 -0.0012194 0.0000030 -0.0005661 0.0000482 -0.0006677 -0.0001607 -0.0009326 0.0002798 -0.0004953 0.0001893 0.0001140 0.0003620 -0.0002232 0.0000827 -0.0012480 0.0004047 -0.0001292 0.0003404 -0.0005886 -0.0000564 -0.0006283 -0.0208606 0.0230113 0.0006125 0.0000171 0.0020491 0.0040531
-0.0001432 -0.0008396 -0.0001364 -0.0008328 0.0000399 -0.0006713 0.0002844 -0.0005175 0.0000077 -0.0007069 0.0002418 -0.0008977 -0.0001263 -0.0012743 0.0000328 -0.0004245 0.0000725 -0.0005798 -0.0001211 -0.0007812 0.0002680 -0.0005231 0.0001744 -0.0000095 0.0004156 0.0000217 0.0000852 -0.0012728 0.0004220 -0.0000383 0.0003816 -0.0004222 -0.0000731 -0.0006737 -0.0028741 -0.0117085 0.0006377 0.0002060 0.0020585 -0.0076131
-0.0001459 -0.0007958 -0.0001613 -0.0008863 0.0000418 -0.0006075 0.0002851 -0.0004119 0.0000034 -0.0006777 0.0002466 -0.0008001 -0.0001511 -0.0012777 0.0000561 -0.0003523 0.0000917 -0.0005382 -0.0000909 -0.0006718 0.0002624 -0.0006193 0.0001561 -0.0001808 0.0004341 0.0000674 0.0000732 -0.0013669 0.0004244 -0.0000861 0.0003861 -0.0004907 -0.0000837 -0.0007666 0.0078365 -0.0248806 0.0006490 0.0000766 -0.0015297 -0.0056730
-0.0001425 -0.0008524 -0.0001554 -0.0009941 0.0000443 -0.0006778 0.0002751 -0.0005563 0.0000248 -0.0007759 0.0002664 -0.0009158 -0.0001473 -0.0013876 0.0000787 -0.0004057 0.0001067 -0.0006133 -0.0000684 -0.0007201 0.0002760 -0.0007836 0.0001339 -0.0004182 0.0004553 -0.0000498 0.0000867 -0.0015495 0.0004323 -0.0002754 0.0004089 -0.0006888 -0.0000840 -0.0009359 -0.0097607 0.0115354 0.0006545 -0.0001526 0.0109673 -0.0204251
-0.0001322 -0.0009731 -0.0001453 -0.0011483 0.0000538 -0.0008303 0.0002956 -0.0008046 0.0000540 -0.0009164 0.0002756 -0.0010861 -0.0001334 -0.0015399 0.0000976 -0.0005056 0.0001192 -0.0007093 -0.0000412 -0.0008014 0.0002885 -0.0009253 0.0001306 -0.0006522 0.0004795 -0.0001528 0.0001070 -0.0016797 0.0004440 -0.0003935 0.0004222 -0.0007885 -0.0000790 -0.0010334 -0.0134427 0.0136311 0.0006530 -0.0001280 0.0066464 -0.0109793
-0.0001076 -0.0009668 -0.0001426 -0.0012115 0.0000822 -0.0008417 0.0003164 -0.0007610 0.0000532 -0.0009671 0.0002754 -0.0010738 -0.0001289 -0.0015936 0.0001020 -0.0005518 0.0001364 -0.0007707 -0.0000298 -0.0008247 0.0002682 -0.0010029 0.0001204 -0.0007921 0.0004702 -0.0001852 0.0000900 -0.0016981 0.0004308 -0.0004138 0.0004043 -0.0007793 -0.0000752 -0.0010401 0.0114419 -0.0177173 0.0006354 -0.0000268 0.0083289 -0.0050920
-0.0000907 -0.0009157 -0.0001318 -0.0012082 0.0001039 -0.0007785 0.0003317 -0.0006706 0.0000412 -0.0009444 0.0002778 -0.0010213 -0.0001161 -0.0015675 0.0001012 -0.0005549 0.0001322 -0.0007706 -0.0000277 -0.0008217 0.0002502 -0.0009834 0.0001069 -0.0008199 0.0004507 -0.0001627 0.0000750 -0.0016549 0.0004126 -0.0004284 0.0003987 -0.0007109 -0.0000761 -0.0010113 0.0097033 -0.0080588 0.0006041 0.0000312 0.0077869 -0.0053636
-0.0000920 -0.0009110 -0.0001236 -0.0011924 0.0001152 -0.0007847 0.0003370 -0.0007395 0.0000596 -0.0009803 0.0002762 -0.0010991 -0.0001113 -0.0015825 0.0001003 -0.0005996 0.0001572 -0.0007892 -0.0000202 -0.0008419 0.0002535 -0.0011078 0.0001194 -0.0009122 0.0004368 -0.0003404 0.0000831 -0.0017257 0.0004149 -0.0004993 0.0003868 -0.0008774 -0.0000694 -0.0010589 0.0097492 -0.0081933 0.0005940 -0.0001794 0.0019882 0.0024782
-0.0000887 -0.0009955 -0.0001166 -0.0012636 0.0001327 -0.0008913 0.0003404 -0.0009221 0.0001014 -0.0010701 0.0002719 -0.0012946 -0.0000772 -0.0016456 0.0001219 -0.0006969 0.0002038 -0.0008627 0.0000153 -0.0009027 0.0002702 -0.0012260 0.0001357 -0.0010468 0.0004279 -0.0006046 0.0000981 -0.0018114 0.0004295 -0.0005917 0.0003658 -0.0011464 -0.0000601 -0.0011487 0.0104912 -0.0071537 0.0005832 -0.0003585 -0.0050059 0.0102589
-0.0000810 -0.0010613 -0.0001063 -0.0013446 0.0001424 -0.0009411 0.0003678 -0.0009971 0.0001243 -0.0010892 0.0002639 -0.0013600 -0.0000292 -0.0016437 0.0001334 -0.0007297 0.0002015 -0.0008587 0.0000420 -0.0009444 0.0002764 -0.0011933 0.0001339 -0.0010896 0.0004074 -0.0007079 0.0001116 -0.0017742 0.0004392 -0.0006102 0.0003429 -0.0012352 -0.0000531 -0.0011432 0.0013649 0.0044092 0.0005622 -0.0002615 0.0034235 -0.0008302
-0.0000705 -0.0010225 -0.0000990 -0.0013391 0.0001388 -0.0009045 0.0003776 -0.0009236 0.0001129 -0.0010594 0.0002425 -0.0013134 -0.0000302 -0.0015563 0.0001269 -0.0007415 0.0002055 -0.0008116 0.0000459 -0.0009449 0.0002657 -0.0011857 0.0001332 -0.0010609 0.0003715 -0.0007749 0.0001063 -0.0016647 0.0004439 -0.0005239 0.0003045 -0.0012439 -0.0000413 -0.0010574 -0.0113751 0.0220292 0.0005345 -0.0001767 0.0164130 -0.0226746
-0.0000665 -0.0009702 -0.0000944 -0.0012843 0.0001358 -0.0008240 0.0003614 -0.0007907 0.0001149 -0.0009943 0.0002272 -0.0012266 -0.0000384 -0.0014040 0.0001328 -0.0007237 0.0002265 -0.0007522 0.0000562 -0.0008672 0.0002552 -0.0011437 0.0001354 -0.0009563 0.0003372 -0.0007830 0.0000949 -0.0015842 0.0004466 -0.0004436 0.0002758 -0.0012417 -0.0000327 -0.0010107 -0.0127695 0.0232874 0.0005049 -0.0002910 0.0053887 -0.0018243
-0.0000778 -0.0010075 -0.0000913 -0.0012877 0.0001592 -0.0008608 0.0003776 -0.0009136 0.0001401 -0.0010313 0.0002322 -0.0013482 0.0000016 -0.0014348 0.0001467 -0.0007522 0.0002399 -0.0007622 0.0000841 -0.0008256 0.0002778 -0.0012084 0.0001579 -0.0009617 0.0003337 -0.0009395 0.0001125 -0.0016433 0.0004517 -0.0005452 0.0002789 -0.0013992 -0.0000244 -0.0010938 0.0020836 -0.0067682 0.0004932 -0.0005291 0.0047556 -0.0039599
-0.0000795 -0.0011029 -0.0000845 -0.0013807 0.0001800 -0.0009223 0.0004022 -0.0011158 0.0001544 -0.0011164 0.0002366 -0.0014865 0.0000459 -0.0015007 0.0001656 -0.0008340 0.0002710 -0.0008332 0.0001061 -0.0008525 0.0002994 -0.0012901 0.0001843 -0.0009945 0.0003414 -0.0011045 0.0001319 -0.0016474 0.0004369 -0.0006456 0.0002751 -0.0014656 -0.0000155 -0.0011625 -0.0011111 -0.0031074 0.0004827 -0.0005898 0.0059831 -0.0103067
-0.0000630 -0.0011031 -0.0000775 -0.0014088 0.0002028 -0.0008532 0.0004027 -0.0010828 0.0001676 -0.0011498 0.0002430 -0.0014023 0.0000673 -0.0014243 0.0001753 -0.0008542 0.0002973 -0.0007965 0.0001134 -0.0008905 0.0002833 -0.0012453 0.0001960 -0.0008986 0.0003293 -0.0010616 0.0001367 -0.0015519 0.0004169 -0.0006856 0.0002713 -0.0013341 -0.0000116 -0.0011422 -0.0168492 0.0181281 0.0004666 -0.0004866 -0.0038041 0.0008202
-0.0000422 -0.0010069 -0.0000667 -0.0013448 0.0002316 -0.0007613 0.0004094 -0.0009791 0.0001662 -0.0011297 0.0002374 -0.0012526 0.0000679 -0.0013012 0.0001721 -0.0008082 0.0002881 -0.0006956 0.0001088 -0.0009098 0.0002737 -0.0011464 0.0002053 -0.0007727 0.0003200 -0.0009523 0.0001357 -0.0014412 0.0004085 -0.0006836 0.0002669 -0.0011676 -0.0000112 -0.0010743 -0.0163402 0.0095506 0.0004606 -0.0003204 -0.0122375 -0.0011103
-0.0000228 -0.0008750 -0.0000583 -0.0012357 0.0002380 -0.0006485 0.0004106 -0.0008070 0.0001460 -0.0010568 0.0002274 -0.0011168 0.0000371 -0.0011807 0.0001712 -0.0007645 0.0002906 -0.0006729 0.0000990 -0.0009103 0.0002634 -0.0011450 0.0002027 -0.0007236 0.0003133 -0.0009373 0.0001322 -0.0014238 0.0004035 -0.0006832 0.0002523 -0.0012040 -0.0000098 -0.0010663 -0.0066710 -0.0007898 0.0004632 -0.0004166 0.0013100 -0.0035874
-0.0000097 -0.0008645 -0.0000420 -0.0012277 0.0002448 -0.0007010 0.0004180 -0.0008965 0.0001629 -0.0010759 0.0002281 -0.0012222 0.0000485 -0.0012073 0.0001851 -0.0008031 0.0003015 -0.0007347 0.0001135 -0.0009696 0.0002836 -0.0011681 0.0002120 -0.0007713 0.0003181 -0.0010483 0.0001553 -0.0014827 0.0004099 -0.0007334 0.0002587 -0.0014326 -0.0000012 -0.0011402 -0.0029566 -0.0005688 0.0004598 -0.0006081 0.0092765 -0.0076118
-0.0000012 -0.0009201 -0.0000223 -0.0012870 0.0002530 -0.0008125 0.0004381 -0.0010804 0.0001887 -0.0011127 0.0002181 -0.0013407 0.0000836 -0.0012519 0.0002039 -0.0008466 0.0002880 -0.0008122 0.0001322 -0.0010142 0.0003202 -0.0011097 0.0002344 -0.0008370 0.0003388 -0.0010772 0.0001776 -0.0014635 0.0004350 -0.0007628 0.0002559 -0.0014790 0.0000045 -0.0011755 -0.0053616 0.0033944 0.0004582 -0.0005877 0.0039188 -0.0077664
0.0000069 -0.0008908 -0.0000174 -0.0012647 0.0002494 -0.0007865 0.0004380 -0.0009995 0.0001884 -0.0010785 0.0002083 -0.0012718 0.0000914 -0.0012297 0.0002070 -0.0008330 0.0002756 -0.0008542 0.0001329 -0.0010311 0.0003142 -0.0010369 0.0002335 -0.0008375 0.0003421 -0.0009781 0.0001739 -0.0013881 0.0004303 -0.0007724 0.0002338 -0.0013712 0.0000038 -0.0011752 -0.0080645 0.0148463 0.0004576 -0.0004885 -0.0059869 0.0043145
0.0000159 -0.0008125 -0.0000122 -0.0012026 0.0002566 -0.0007101 0.0004406 -0.0008659 0.0001804 -0.0010463 0.0002156 -0.0011211 0.0000829 -0.0011556 0.0002040 -0.0007856 0.0002704 -0.0008163 0.0001108 -0.0010868 0.0003182 -0.0009111 0.0002184 -0.0007733 0.0003366 -0.0008493 0.0001657 -0.0013061 0.0003811 -0.0008949 0.0002277 -0.0012090 -0.0000083 -0.0011763 -0.0124239 0.0209283 0.0004214 -0.0003733 -0.0056819 -0.0050740
0.0000230 -0.0007178 -0.0000041 -0.0011216 0.0002710 -0.0006454 0.0004237 -0.0007943 0.0001672 -0.0010364 0.0002148 -0.0010021 0.0000629 -0.0011017 0.0002087 -0.0007744 0.0002747 -0.0008256 0.0000740 -0.0012184 0.0003411 -0.0009295 0.0002233 -0.0008882 0.0003455 -0.0009353 0.0001576 -0.0013717 0.0003269 -0.0011838 0.0002290 -0.0013352 -0.0000173 -0.0012789 -0.0202243 0.0192891 0.0003975 -0.0006678 -0.0012467 -0.0251208
0.0000245 -0.0007590 0.0000097 -0.0011545 0.0002573 -0.0007886 0.0004004 -0.0009885 0.0001618 -0.0011064 0.0001995 -0.0011832 0.0000658 -0.0012888 0.0002162 -0.0008504 0.0002643 -0.0010391 0.0000678 -0.0012971 0.0003754 -0.0010363 0.0002230 -0.0011733 0.0003604 -0.0011534 0.0001431 -0.0015597 0.0003233 -0.0013701 0.0002144 -0.0016748 -0.0000111 -0.0013893 -0.0134823 0.0215553 0.0004025 -0.0010663 -0.0125640 0.0039611
0.0000094 -0.0008829 0.0000156 -0.0012521 0.0002111 -0.0010821 0.0004196 -0.0012080 0.0001610 -0.0012142 0.0001738 -0.0014020 0.0000429 -0.0015597 0.0002164 -0.0009088 0.0002165 -0.0012775 0.0000732 -0.0012668 0.0003840 -0.0011036 0.0002012 -0.0014096 0.0003748 -0.0012188 0.0001210 -0.0016726 0.0003310 -0.0013760 0.0001948 -0.0017881 -0.0000036 -0.0014137 -0.0093211 0.0164790 0.0003989 -0.0011336 -0.0163415 0.0078923
-0.0000102 -0.0009090 0.0000103 -0.0012630 0.0001662 -0.0012357 0.0004305 -0.0011777 0.0001359 -0.0012539 0.0001455 -0.0013866 -0.0000190 -0.0016857 0.0002019 -0.0009003 0.0001749 -0.0014024 0.0000515 -0.0012805 0.0003503 -0.0011627 0.0001727 -0.0015250 0.0003765 -0.0011612 0.0001024 -0.0016961 0.0003007 -0.0013677 0.0001831 -0.0017255 -0.0000063 -0.0014205 -0.0040192 -0.0117544 0.0003976 -0.0011032 0.0024649 -0.0227089
