-0.0000000 -0.0000000 -0.0000000 -0.0000000 -0.0000000 -0.0000000 -0.0000000 -0.0000000 -0.0000000 -0.0000000 -0.0000000 -0.0000000 -0.0000000 -0.0000000 -0.0000000 -0.0000000 -0.0000000 -0.0000000 -0.0000000 -0.0000000 -0.0000000 -0.0000000 -0.0000000 -0.0000000 -0.0000000 -0.0000000 -0.0000000 -0.0000000 -0.0000000 -0.0000000 -0.0000000 -0.0000000 -0.0000000 -0.0000000 -0.0000000 -0.0000000 -0.0000000 -0.0000000 -0.0000000 -0.0000000
-0.0000000 -0.0000000 -0.0000000 -0.0000000 -0.0000000 -0.0000000 -0.0000000 -0.0000000 -0.0000000 -0.0000000 -0.0000000 -0.0000000 -0.0000000 -0.0000000 -0.0000000 -0.0000000 -0.0000000 -0.0000000 -0.0000000 -0.0000000 -0.0000000 -0.0000000 -0.0000000 -0.0000000 -0.0000000 -0.0000000 -0.0000000 -0.0000000 -0.0000000 -0.0000000 -0.0000000 -0.0000000 -0.0000000 -0.0000000 -0.0000000 -0.0000000 -0.0000000 -0.0000000 -0.0000000 -0.0000000
0.0000354 0.0001013 0.0000647 0.0001034 0.0000012 0.0000129 0.0000012 -0.0000321 0.0013109 -0.0013809 -0.0000032 0.0000479 0.0000232 -0.0000222 -0.0000492 0.0001238 -0.0000604 0.0000871 -0.0000355 0.0000535 -0.0000022 0.0000178 -0.0000597 0.0000665 0.0000287 0.0000985 0.0000302 0.0000922 0.0000522 0.0001324 0.0000004 0.0000691 -0.0000127 0.0000327 0.0000249 0.0002400 0.0000263 0.0001257 0.0000297 0.0001587
0.0000242 0.0001511 0.0000281 0.0001690 0.0000069 0.0001558 0.0000091 0.0000820 0.0008865 -0.0024096 0.0000017 0.0001970 0.0000279 -0.0001226 -0.0000087 0.0002113 -0.0000162 0.0001403 0.0000077 0.0001939 -0.0000201 0.0000383 -0.0001031 0.0000675 0.0000225 0.0001998 0.0000452 0.0002334 0.0000099 0.0003500 -0.0000063 0.0001773 -0.0000432 0.0000722 0.0000155 0.0004008 0.0000216 0.0002696 0.0000261 0.0002933
0.0000181 0.0003155 0.0000349 0.0003040 -0.0000231 0.0002673 -0.0000304 0.0001151 0.0000771 -0.0012285 -0.0000266 0.0003227 -0.0001203 -0.0001211 0.0000064 0.0000281 0.0001168 0.0001496 -0.0000015 0.0003602 -0.0000203 0.0001339 -0.0001102 0.0000777 0.0000082 0.0003881 0.0000560 0.0003618 -0.0000631 0.0004887 -0.0000298 0.0002856 -0.0001267 0.0001413 -0.0001175 0.0003960 -0.0000067 0.0003628 -0.0000317 0.0002305
0.0001037 0.0005417 0.0000926 0.0004269 -0.0000920 0.0001798 -0.0001085 -0.0000758 0.0003812 -0.0005541 -0.0000978 0.0002266 -0.0001321 -0.0000643 -0.0000016 0.0002951 0.0001826 0.0001719 -0.0000449 0.0002271 -0.0000048 0.0001149 -0.0001726 -0.0000315 -0.0000058 0.0003593 0.0000569 0.0001874 -0.0001368 0.0001317 -0.0000389 0.0001896 -0.0001464 0.0001413 -0.0002998 -0.0001388 -0.0000421 0.0000973 -0.0000989 -0.0001688
0.0001625 0.0004975 0.0000595 0.0003607 -0.0001230 -0.0001208 -0.0001305 -0.0003751 0.0010956 -0.0014443 -0.0001226 -0.0000641 -0.0000121 -0.0001030 0.0001508 0.0001796 0.0001063 -0.0000450 0.0000083 -0.0003029 0.0000142 -0.0000368 -0.0000910 -0.0002122 -0.0000038 -0.0000196 0.0000673 -0.0000713 -0.0000643 -0.0004656 -0.0000161 -0.0001082 -0.0000759 0.0000046 -0.0002920 -0.0008170 -0.0000297 -0.0002803 -0.0000760 -0.0004657
0.0001121 0.0002108 0.0000132 0.0000917 -0.0000883 -0.0002913 -0.0000855 -0.0004606 0.0011006 -0.0023388 -0.0000883 -0.0001608 -0.0002373 0.0001128 0.0002443 -0.0001865 0.0000339 -0.0001498 0.0000075 -0.0004607 0.0000313 -0.0000370 0.0000634 -0.0001053 0.0000402 -0.0000975 0.0000878 -0.0000283 0.0000444 -0.0004886 0.0000084 -0.0001242 -0.0000428 0.0000246 -0.0001985 -0.0006870 0.0000056 -0.0002368 -0.0000092 -0.0003423
0.0000826 0.0001840 0.0000402 0.0000694 -0.0000485 -0.0001622 -0.0000403 -0.0002798 0.0009940 -0.0019498 -0.0000532 -0.0000472 -0.0002538 0.0004046 0.0001698 -0.0000423 0.0000383 -0.0000999 -0.0000122 -0.0003309 0.0000260 0.0000281 0.0001195 -0.0000208 0.0000714 0.0000962 0.0000815 0.0000736 0.0000621 -0.0001928 0.0000187 0.0000650 -0.0000226 0.0001057 -0.0001379 -0.0003328 0.0000060 -0.0000710 0.0000208 -0.0001765
0.0000856 0.0003244 0.0001065 0.0002289 -0.0000459 0.0000509 -0.0000140 -0.0000317 -0.0002221 -0.0005354 -0.0000273 0.0001301 -0.0001172 0.0001768 -0.0000745 0.0002759 0.0000302 -0.0000223 -0.0000399 -0.0001831 0.0000042 0.0000918 0.0000033 -0.0000548 0.0000767 0.0003166 0.0000251 0.0001702 0.0000250 0.0001059 0.0000177 0.0002503 -0.0000038 0.0001824 -0.0000844 0.0000197 -0.0000140 0.0001094 0.0000247 0.0000449
0.0000713 0.0004706 0.0001140 0.0004451 -0.0000736 0.0002836 0.0000052 0.0002456 -0.0012751 0.0009719 -0.0000116 0.0003057 -0.0003691 0.0003325 -0.0002287 0.0005474 -0.0002201 0.0003978 -0.0001439 0.0000721 -0.0000222 0.0001709 -0.0001121 -0.0001403 0.0000715 0.0005472 -0.0000691 0.0002741 -0.0000576 0.0003927 0.0000028 0.0004443 0.0000074 0.0002560 -0.0000674 0.0003115 -0.0000555 0.0002769 0.0000073 0.0002437
0.0000379 0.0006308 0.0001167 0.0006429 -0.0001064 0.0004665 0.0000053 0.0004462 0.0004326 -0.0020575 -0.0000282 0.0003377 0.0000030 0.0002709 -0.0002098 0.0005510 -0.0001634 0.0004809 -0.0001465 0.0001633 -0.0000358 0.0001615 -0.0001546 -0.0002733 0.0000500 0.0005445 -0.0001008 0.0002022 -0.0001039 0.0001782 -0.0000087 0.0004227 -0.0000005 0.0001610 -0.0001189 0.0000063 -0.0000889 0.0001053 -0.0000383 -0.0000271
0.0000339 0.0005322 0.0001650 0.0004480 -0.0001360 0.0002489 -0.0000191 0.0002389 0.0009677 -0.0019945 -0.0000522 0.0000895 0.0003782 -0.0002542 -0.0001393 0.0001921 0.0001601 -0.0001236 -0.0000913 -0.0002458 -0.0000264 0.0000167 -0.0002164 -0.0004425 0.0000353 0.0002110 -0.0001003 -0.0000741 -0.0001324 -0.0004462 -0.0000020 0.0001458 -0.0000230 -0.0000410 -0.0001850 -0.0006532 -0.0000804 -0.0002947 -0.0000707 -0.0005834
0.0000356 0.0002603 0.0001309 0.0001531 -0.0001370 -0.0000735 -0.0000220 -0.0000831 0.0003545 0.0006594 -0.0000545 -0.0001273 0.0000942 -0.0004139 -0.0000425 -0.0000970 0.0001475 -0.0002905 -0.0001041 -0.0004837 -0.0000128 -0.0000481 -0.0000871 -0.0002718 0.0000542 -0.0000136 -0.0000709 -0.0001537 -0.0001060 -0.0004935 0.0000120 0.0000440 -0.0000495 -0.0001931 -0.0000998 -0.0005441 -0.0000252 -0.0002720 -0.0000008 -0.0004665
-0.0000419 0.0001221 0.0000472 0.0000164 -0.0000848 0.0000479 0.0000172 0.0000110 0.0021205 -0.0012385 -0.0000161 0.0000253 0.0002935 -0.0004169 0.0000107 -0.0000984 0.0000043 0.0001804 -0.0000315 -0.0000479 -0.0000052 0.0000760 0.0001520 0.0002748 0.0000418 -0.0000530 -0.0000257 0.0000804 -0.0000190 -0.0000657 0.0000112 0.0001327 -0.0000446 -0.0002393 0.0000537 0.0000323 0.0000231 0.0000149 0.0000743 -0.0000175
-0.0000817 0.0001303 -0.0000365 0.0000391 -0.0000329 0.0003125 0.0000434 0.0002395 0.0012059 -0.0007734 0.0000217 0.0002694 0.0001810 -0.0000092 0.0001741 -0.0002846 0.0000169 0.0003246 -0.0000220 0.0003994 -0.0000153 0.0001819 0.0001726 0.0006257 0.0000177 0.0000733 -0.0000282 0.0002980 0.0000026 0.0003315 -0.0000018 0.0003042 -0.0000313 -0.0001018 0.0001021 0.0005133 0.0000216 0.0002774 0.0000911 0.0003164
-0.0000811 0.0003112 -0.0000331 0.0002700 -0.0000389 0.0005552 0.0000331 0.0004344 -0.0001435 0.0004556 0.0000188 0.0004682 -0.0000357 0.0002821 0.0002357 -0.0003257 -0.0000579 0.0003860 -0.0000184 0.0006167 -0.0000478 0.0002370 0.0000560 0.0007365 -0.0000087 0.0002958 -0.0000642 0.0004809 -0.0000089 0.0007039 -0.0000338 0.0005137 -0.0000423 0.0000552 0.0000760 0.0008733 -0.0000021 0.0005385 0.0000895 0.0006415
-0.0001135 0.0004848 -0.0000211 0.0004064 -0.0000677 0.0007135 0.0000045 0.0005207 0.0002865 0.0003173 -0.0000043 0.0004949 0.0000839 0.0001688 0.0000740 -0.0000458 -0.0000539 0.0003181 0.0000063 0.0006478 -0.0000693 0.0001563 -0.0000501 0.0005440 -0.0000558 0.0002013 -0.0001037 0.0004175 -0.0000326 0.0004997 -0.0000554 0.0004437 -0.0000288 0.0000051 -0.0000113 0.0004971 -0.0000406 0.0003219 0.0000447 0.0003693
-0.0000954 0.0003477 -0.0000165 0.0001899 -0.0000954 0.0004212 -0.0000291 0.0002217 0.0004118 -0.0002630 -0.0000410 0.0001841 0.0001217 -0.0000346 0.0000121 -0.0001292 0.0000364 -0.0000154 -0.0000273 0.0002255 -0.0000617 -0.0000736 -0.0000736 0.0001430 -0.0000581 -0.0001602 -0.0000958 0.0000430 -0.0000464 -0.0002247 -0.0000424 0.0000984 -0.0000123 -0.0001686 -0.0000805 -0.0002944 -0.0000513 -0.0002073 0.0000130 -0.0002569
-0.0000777 0.0000167 -0.0000052 -0.0001665 -0.0000957 -0.0000106 -0.0000336 -0.0001437 -0.0000282 0.0002380 -0.0000469 -0.0000520 0.0001939 -0.0002545 -0.0000856 -0.0001232 0.0000408 -0.0002298 -0.0000101 -0.0001747 -0.0000434 -0.0001544 0.0000546 0.0000708 -0.0000134 -0.0003225 -0.0000710 -0.0001003 -0.0000217 -0.0004526 -0.0000290 -0.0000543 -0.0000173 -0.0001765 -0.0000108 -0.0003167 -0.0000217 -0.0002867 0.0000463 -0.0003095
-0.0000708 -0.0000446 -0.0000078 -0.0001708 -0.0000635 -0.0000288 -0.0000140 -0.0001663 -0.0003782 0.0002766 -0.0000311 0.0000194 -0.0000492 0.0000399 0.0000039 -0.0001148 0.0000774 -0.0003367 0.0000375 -0.0001186 -0.0000411 -0.0001138 0.0001267 0.0002654 0.0000172 -0.0002148 -0.0000467 0.0000162 0.0000501 -0.0002024 -0.0000245 0.0000403 -0.0000174 -0.0000939 0.0000611 0.0001324 0.0000065 -0.0000690 0.0000991 -0.0000145
-0.0000765 0.0000543 0.0000070 -0.0000580 -0.0000325 0.0001626 0.0000011 -0.0000024 0.0001352 0.0006415 -0.0000115 0.0002222 -0.0002034 0.0003824 0.0001010 -0.0001464 0.0000256 -0.0000631 0.0000131 0.0002275 -0.0000612 -0.0000695 0.0001282 0.0004445 0.0000081 -0.0000505 -0.0000217 0.0001979 0.0001085 0.0001856 -0.0000326 0.0002062 -0.0000218 -0.0000197 0.0000949 0.0006069 0.0000143 0.0001962 0.0001294 0.0003389
-0.0000851 0.0001955 0.0000093 0.0000717 -0.0000185 0.0003971 -0.0000020 0.0002111 -0.0009620 0.0017646 -0.0000091 0.0004400 -0.0003108 0.0004950 -0.0000014 0.0001024 -0.0001115 0.0004066 -0.0000178 0.0005906 -0.0000830 0.0000331 0.0000822 0.0006052 -0.0000078 0.0001814 -0.0000107 0.0003789 0.0000804 0.0005770 -0.0000482 0.0004140 -0.0000315 0.0001306 0.0000841 0.0009189 -0.0000053 0.0004327 0.0001204 0.0005809
-0.0000714 0.0003875 -0.0000129 0.0002237 -0.0000335 0.0004989 -0.0000230 0.0002885 -0.0008303 0.0010451 -0.0000359 0.0004265 -0.0003051 0.0005778 0.0000734 -0.0000594 -0.0000776 0.0003354 -0.0000088 0.0005281 -0.0000889 0.0000172 0.0000180 0.0004995 -0.0000304 0.0001217 -0.0000396 0.0002999 0.0000110 0.0003415 -0.0000513 0.0003459 -0.0000237 0.0000890 -0.0000083 0.0004611 -0.0000409 0.0002087 0.0000813 0.0002642
-0.0000680 0.0003116 -0.0000046 0.0000769 -0.0000578 0.0002122 -0.0000461 0.0000283 -0.0020152 0.0027413 -0.0000669 0.0001403 -0.0001145 0.0005523 -0.0000465 -0.0000233 -0.0000434 -0.0000434 -0.0000887 0.0001278 -0.0000656 -0.0001390 0.0001055 0.0002125 -0.0000161 -0.0002243 -0.0000469 -0.0000542 0.0000454 -0.0004120 -0.0000300 0.0000217 -0.0000153 -0.0001009 -0.0000872 -0.0003039 -0.0000511 -0.0002599 0.0000619 -0.0002718
-0.0000361 0.0000190 0.0000458 -0.0001903 -0.0000505 -0.0001348 -0.0000519 -0.0002614 -0.0022950 0.0038173 -0.0000759 -0.0000293 0.0000595 0.0002399 -0.0001528 0.0000852 -0.0001095 -0.0001478 -0.0001187 -0.0001802 -0.0000413 -0.0001840 0.0001949 0.0001013 0.0000445 -0.0002737 -0.0000390 -0.0002192 0.0000541 -0.0005482 -0.0000007 -0.0000665 -0.0000293 -0.0000724 -0.0000527 -0.0002684 -0.0000373 -0.0003182 0.0000803 -0.0003518
0.0000205 0.0000227 0.0001178 -0.0001477 -0.0000352 -0.0001620 -0.0000499 -0.0002721 -0.0004432 0.0017690 -0.0000800 0.0000354 -0.0001122 0.0002289 -0.0000322 0.0000687 -0.0001086 -0.0000823 -0.0000634 -0.0002424 -0.0000515 -0.0001543 0.0001496 0.0000255 0.0000831 -0.0000399 -0.0000231 -0.0001798 0.0000518 -0.0002967 0.0000242 0.0000805 -0.0000475 0.0000728 -0.0000202 0.0001079 -0.0000355 -0.0001357 0.0000892 -0.0002099
0.0000629 0.0002425 0.0001557 0.0001005 -0.0000389 -0.0000413 -0.0000554 -0.0001244 0.0015716 -0.0005732 -0.0000816 0.0002177 -0.0002606 0.0003955 0.0000142 0.0002480 -0.0000628 -0.0000145 -0.0000692 -0.0000746 -0.0000783 -0.0000770 0.0000100 -0.0000918 0.0000816 0.0002195 0.0000011 -0.0001040 0.0000762 -0.0000245 0.0000252 0.0002793 -0.0000733 0.0002177 -0.0000442 0.0004284 -0.0000481 0.0001124 0.0000776 0.0000167
0.0000718 0.0004731 0.0001644 0.0003939 -0.0000603 0.0001764 -0.0000732 0.0001125 0.0026807 -0.0015080 -0.0000901 0.0004442 -0.0001452 0.0001774 0.0000149 0.0003944 -0.0000004 0.0000700 -0.0001379 0.0002111 -0.0000979 0.0000930 -0.0001535 -0.0001638 0.0000502 0.0004712 -0.0000332 0.0000354 0.0000126 0.0002999 -0.0000049 0.0004766 -0.0000962 0.0003782 -0.0000983 0.0006661 -0.0000808 0.0003426 0.0000388 0.0002110
0.0000596 0.0006248 0.0001695 0.0005713 -0.0000961 0.0003066 -0.0001010 0.0002359 0.0009015 0.0002758 -0.0001186 0.0004550 -0.0000883 0.0000426 -0.0000056 0.0003493 0.0000334 -0.0000650 -0.0001684 0.0001523 -0.0001042 0.0001165 -0.0002408 -0.0004139 0.0000027 0.0003944 -0.0000788 -0.0000632 -0.0000193 0.0000114 -0.0000262 0.0003811 -0.0000885 0.0003111 -0.0001900 0.0002406 -0.0001254 0.0001265 -0.0000140 -0.0000863
0.0000494 0.0004346 0.0001175 0.0004255 -0.0001263 0.0000526 -0.0001252 0.0000302 -0.0010034 0.0028530 -0.0001464 0.0001777 0.0000555 -0.0001967 -0.0000350 0.0001249 -0.0000217 -0.0002430 -0.0001461 -0.0002654 -0.0001040 -0.0000636 -0.0003300 -0.0008432 -0.0000225 0.0000071 -0.0001067 -0.0003785 -0.0000578 -0.0005754 -0.0000243 0.0000390 -0.0000804 0.0001019 -0.0002555 -0.0003816 -0.0001459 -0.0002984 -0.0000200 -0.0004640
0.0000227 0.0001258 0.0000320 0.0002232 -0.0001099 -0.0001974 -0.0001268 -0.0001688 -0.0002304 0.0006674 -0.0001449 0.0000398 0.0001424 -0.0005896 -0.0001435 0.0000120 -0.0000795 -0.0001911 -0.0001138 -0.0003751 -0.0001167 -0.0001873 -0.0003012 -0.0008860 -0.0000139 -0.0001233 -0.0001204 -0.0005346 -0.0000301 -0.0005720 0.0001671 0.0005850 -0.0000293 0.0001265 -0.0001714 -0.0002220 -0.0000912 -0.0003623 0.0002217 0.0003892
-0.0000324 -0.0000169 0.0000260 0.0000643 0.0000647 0.0002784 -0.0000905 -0.0001119 0.0007169 -0.0024586 -0.0001353 0.0001275 0.0001183 -0.0004679 -0.0002040 -0.0002142 -0.0000809 0.0000936 -0.0000488 -0.0001692 -0.0000970 -0.0000993 -0.0001136 -0.0002922 0.0000027 0.0000151 -0.0001260 -0.0004816 0.0000993 -0.0001662 0.0004722 0.0016906 0.0000734 0.0003885 -0.0000786 0.0002394 -0.0000551 -0.0002699 0.0004453 0.0013733
-0.0000736 0.0000001 0.0000426 -0.0000413 0.0001895 0.0007994 -0.0000447 0.0001225 0.0000120 -0.0023069 -0.0001269 0.0003151 -0.0001291 0.0000057 -0.0001198 -0.0004306 0.0000305 0.0002113 0.0000291 0.0000505 -0.0000554 0.0001928 -0.0000306 0.0001862 0.0000129 0.0003027 -0.0001349 -0.0002222 0.0001649 0.0002849 0.0004293 0.0017960 0.0001315 0.0006217 -0.0000390 0.0007731 -0.0000830 0.0000230 0.0003537 0.0012931
-0.0000824 0.0002018 -0.0000086 0.0001525 0.0001210 0.0007617 -0.0000311 0.0003760 0.0002224 -0.0023269 -0.0001303 0.0003749 -0.0001571 -0.0000388 0.0000588 -0.0003916 -0.0000383 0.0000910 0.0000147 0.0001555 -0.0000437 0.0003598 -0.0001253 0.0000672 -0.0000072 0.0003217 -0.0001275 -0.0001723 0.0001362 0.0001807 0.0001828 0.0010218 0.0001686 0.0005550 -0.0000327 0.0005989 -0.0000882 0.0000267 0.0001769 0.0005346
-0.0000710 0.0001474 -0.0000731 0.0001860 0.0000443 0.0003926 -0.0000309 0.0003075 0.0017629 -0.0022124 -0.0001403 0.0001605 0.0001495 -0.0001962 0.0001547 -0.0003667 -0.0001334 -0.0000587 -0.0000122 -0.0000957 -0.0000416 0.0002676 -0.0001621 -0.0002786 -0.0000206 -0.0000280 -0.0000893 -0.0004010 0.0000904 -0.0003300 0.0000904 0.0003313 0.0001591 0.0004021 -0.0000506 0.0000885 -0.0000616 -0.0002618 0.0000908 -0.0002277
-0.0000401 -0.0000411 -0.0000374 0.0000093 0.0000145 0.0000332 -0.0000177 0.0001676 0.0012954 -0.0038701 -0.0001251 0.0000490 -0.0000779 0.0001357 0.0002710 -0.0004812 -0.0000910 -0.0001141 0.0000143 -0.0003991 -0.0000417 0.0002074 -0.0000453 -0.0001139 0.0000062 -0.0001477 -0.0000304 -0.0003868 0.0001401 -0.0004634 0.0000821 0.0001296 0.0001185 0.0004113 -0.0000123 0.0002168 -0.0000134 -0.0002427 0.0001063 -0.0003593
-0.0000153 0.0000285 0.0000524 -0.0000944 0.0000401 0.0000444 0.0000142 0.0002572 0.0016547 -0.0057140 -0.0000920 0.0001531 -0.0002696 0.0006139 0.0003726 -0.0004774 -0.0000914 -0.0000108 0.0000484 -0.0003499 -0.0000173 0.0004045 0.0002364 0.0006505 0.0000373 0.0000140 -0.0000254 -0.0003147 0.0002477 -0.0002150 0.0000835 0.0001836 0.0001179 0.0004655 0.0000394 0.0006113 0.0000046 -0.0001160 0.0001245 -0.0002213
-0.0000331 0.0001724 0.0000255 0.0000192 0.0000542 0.0002340 0.0000474 0.0004634 0.0031794 -0.0031590 -0.0000790 0.0003276 0.0001595 0.0008276 0.0002738 -0.0001497 -0.0000075 0.0001190 0.0000254 -0.0000036 -0.0000111 0.0006333 0.0002441 0.0009834 0.0000207 0.0001965 -0.0001068 -0.0002830 0.0002050 0.0001905 0.0000547 0.0002481 0.0001270 0.0005390 0.0000214 0.0008477 -0.0000225 -0.0000562 0.0000836 -0.0002536
-0.0000375 0.0002859 0.0000378 0.0001629 0.0000326 0.0002420 0.0000405 0.0004876 0.0015139 0.0003486 -0.0001200 0.0002380 0.0000078 0.0010258 0.0001844 0.0001639 0.0000816 -0.0000449 -0.0000153 -0.0001745 -0.0000426 0.0005088 0.0000586 0.0005691 -0.0000084 0.0001135 -0.0001330 -0.0004524 0.0001049 -0.0001076 0.0000603 0.0001410 0.0001294 0.0004501 -0.0001340 0.0001869 -0.0000624 -0.0004028 0.0000215 -0.0007379
0.0000278 0.0001754 0.0000534 0.0000735 0.0000020 -0.0000937 0.0000016 0.0001461 -0.0002993 0.0008048 -0.0001557 -0.0000911 -0.0002560 0.0004912 0.0000820 0.0000722 -0.0000428 -0.0002605 -0.0000628 -0.0008524 -0.0000752 0.0001303 -0.0000281 -0.0000568 0.0000054 -0.0001717 -0.0000793 -0.0008379 0.0001324 -0.0009419 0.0001147 -0.0001155 0.0001153 0.0002294 -0.0002278 -0.0006177 -0.0000628 -0.0008199 0.0000054 -0.0012245
0.0000731 -0.0000533 0.0000333 -0.0000208 0.0000020 -0.0003386 -0.0000143 -0.0001186 -0.0002862 0.0003164 -0.0001440 -0.0001890 -0.0000797 -0.0001490 0.0001091 -0.0002457 -0.0002039 -0.0001836 -0.0001220 -0.0009799 -0.0001115 -0.0000793 -0.0000792 -0.0002658 0.0000245 -0.0002648 -0.0000372 -0.0008573 0.0001843 -0.0010140 0.0001548 -0.0001797 0.0000884 0.0001362 -0.0001493 -0.0005511 -0.0000186 -0.0007927 0.0000622 -0.0012200
0.0000651 -0.0000343 0.0000130 0.0000866 0.0000387 -0.0002753 -0.0000093 -0.0000852 -0.0028577 0.0033813 -0.0001276 -0.0000485 -0.0004201 0.0001851 0.0000319 -0.0000522 -0.0001712 -0.0001212 -0.0000719 -0.0006945 -0.0001274 -0.0000122 0.0000099 0.0000017 0.0000144 -0.0002082 0.0000211 -0.0006316 0.0001927 -0.0005937 0.0001602 -0.0001032 0.0000688 0.0000671 -0.0000438 -0.0001307 0.0000379 -0.0005138 0.0001245 -0.0009023
0.0000426 0.0000667 -0.0000466 0.0002025 0.0000744 -0.0000733 -0.0000108 0.0000939 -0.0049982 0.0062299 -0.0001035 0.0002076 -0.0007559 0.0005271 -0.0000183 0.0001731 -0.0000666 -0.0000754 0.0000033 -0.0003824 -0.0001212 0.0001268 0.0000450 0.0001824 -0.0000339 -0.0002437 0.0000879 -0.0005008 0.0002172 -0.0004316 0.0001442 -0.0001076 0.0000843 0.0000216 -0.0000608 -0.0002135 0.0000717 -0.0004300 0.0001176 -0.0008846
0.0000603 0.0000169 -0.0000283 0.0000297 0.0000888 -0.0000951 -0.0000199 0.0000754 -0.0029890 0.0031762 -0.0001018 0.0001828 -0.0006978 0.0006312 0.0000756 0.0000097 0.0000458 -0.0001540 0.0000440 -0.0004685 -0.0000927 0.0001462 0.0000328 0.0001254 -0.0000597 -0.0004490 0.0001431 -0.0006117 0.0002319 -0.0007946 0.0001429 -0.0003300 0.0000607 -0.0001245 -0.0001320 -0.0007730 0.0000789 -0.0007264 0.0000970 -0.0012918
0.0001135 -0.0000840 -0.0000319 -0.0001889 0.0000739 -0.0004158 -0.0000677 -0.0002991 -0.0005378 0.0003146 -0.0001495 -0.0000837 -0.0002535 0.0000740 0.0000832 -0.0002220 0.0001028 -0.0001277 0.0000906 -0.0007255 -0.0000352 0.0001286 0.0001278 0.0001410 -0.0000264 -0.0005360 0.0002375 -0.0008373 0.0002698 -0.0012338 0.0001685 -0.0005486 -0.0000666 -0.0002304 -0.0002126 -0.0009541 0.0000823 -0.0009756 0.0000854 -0.0015548
0.0002085 0.0000088 0.0000044 -0.0001049 0.0000558 -0.0005980 -0.0001211 -0.0005835 0.0010151 -0.0002573 -0.0001642 -0.0001146 0.0002008 -0.0001340 0.0000943 -0.0002074 0.0001601 0.0000472 0.0001423 -0.0007133 0.0000184 0.0002360 0.0002179 0.0001812 0.0000042 -0.0004217 0.0002760 -0.0008805 0.0003355 -0.0011463 0.0001580 -0.0006517 -0.0001166 -0.0001756 -0.0002102 -0.0007144 0.0000973 -0.0009077 0.0000798 -0.0014588
0.0002104 0.0000616 0.0000823 -0.0000403 0.0000718 -0.0004941 -0.0001054 -0.0004644 0.0018364 -0.0017680 -0.0001312 0.0000543 0.0001277 0.0003126 0.0002148 -0.0000537 0.0002498 -0.0000285 0.0002200 -0.0005429 0.0000344 0.0003523 0.0001797 0.0001019 -0.0000053 -0.0003443 0.0002430 -0.0008074 0.0003268 -0.0008883 0.0001179 -0.0007504 -0.0000598 -0.0000965 -0.0001427 -0.0006750 0.0000994 -0.0009094 0.0000657 -0.0015296
0.0001844 -0.0000440 0.0000625 -0.0000401 0.0000722 -0.0005541 -0.0000960 -0.0004698 0.0025225 -0.0005937 -0.0001185 -0.0000194 0.0003152 0.0001498 0.0002648 -0.0000924 0.0002489 -0.0002446 0.0001938 -0.0006507 0.0000413 0.0002690 0.0001531 -0.0002922 -0.0000035 -0.0004723 0.0002286 -0.0010452 0.0003553 -0.0012721 0.0001160 -0.0010118 -0.0000238 -0.0001094 -0.0001745 -0.0010920 0.0000889 -0.0012564 0.0000282 -0.0020340
0.0002204 -0.0002080 0.0000547 -0.0000981 0.0000562 -0.0009004 -0.0001081 -0.0007772 0.0017488 0.0008175 -0.0001259 -0.0003044 0.0001375 0.0001161 0.0001949 -0.0002538 0.0001401 -0.0005130 0.0001195 -0.0011313 0.0000322 0.0000033 0.0000900 -0.0008244 0.0000344 -0.0006260 0.0002454 -0.0013133 0.0004318 -0.0017138 0.0001505 -0.0012450 -0.0000251 -0.0002107 -0.0001157 -0.0012541 0.0001380 -0.0013919 0.0000815 -0.0021448
0.0002367 -0.0002986 0.0000792 -0.0001642 0.0000907 -0.0009614 -0.0000940 -0.0008575 0.0011939 0.0003127 -0.0001100 -0.0003377 0.0001342 0.0000841 0.0001133 -0.0002763 0.0000573 -0.0006673 0.0001324 -0.0012796 0.0000012 -0.0001867 0.0000878 -0.0009003 0.0000848 -0.0004642 0.0002872 -0.0012014 0.0004691 -0.0015856 0.0002104 -0.0011049 -0.0000367 -0.0001976 -0.0000163 -0.0009594 0.0001854 -0.0011799 0.0001862 -0.0017490
0.0002983 -0.0001530 0.0001109 0.0000249 0.0001290 -0.0007407 -0.0000895 -0.0007425 0.0013537 0.0001245 -0.0000874 -0.0001803 0.0001832 0.0001207 0.0000913 -0.0000404 0.0001904 -0.0005538 0.0001856 -0.0010865 -0.0000261 -0.0002121 0.0001390 -0.0005652 0.0001212 -0.0001455 0.0003249 -0.0010128 0.0004684 -0.0012614 0.0002607 -0.0008238 -0.0000458 -0.0001397 0.0000051 -0.0007101 0.0001767 -0.0010338 0.0002256 -0.0015482
0.0003501 0.0000274 0.0001580 0.0001772 0.0001231 -0.0006862 -0.0001011 -0.0007524 0.0015912 0.0000730 -0.0000918 -0.0001780 0.0002024 -0.0000962 0.0001641 -0.0001788 0.0003164 -0.0004284 0.0002427 -0.0011300 -0.0000421 -0.0002882 0.0001592 -0.0004763 0.0001010 -0.0001912 0.0003112 -0.0011321 0.0004052 -0.0014288 0.0002700 -0.0008718 -0.0000906 -0.0004191 -0.0000239 -0.0010555 0.0001667 -0.0012065 0.0002211 -0.0018584
0.0003431 -0.0001170 0.0001575 0.0000159 0.0001051 -0.0009255 -0.0001033 -0.0009413 0.0021964 -0.0002702 -0.0000947 -0.0003852 0.0002383 -0.0005912 0.0001513 -0.0006099 0.0002786 -0.0005667 0.0002772 -0.0015630 -0.0000437 -0.0004777 0.0001481 -0.0008524 0.0000850 -0.0004829 0.0002837 -0.0014318 0.0003798 -0.0019116 0.0002678 -0.0011482 -0.0001272 -0.0007713 -0.0000129 -0.0013991 0.0001792 -0.0014138 0.0002251 -0.0021385
0.0003519 -0.0003294 0.0001726 -0.0001289 0.0001192 -0.0010648 -0.0000966 -0.0010477 0.0016083 0.0000748 -0.0000860 -0.0004657 0.0001705 -0.0007402 0.0001166 -0.0007456 0.0001906 -0.0005782 0.0002705 -0.0017287 -0.0000574 -0.0006147 0.0001470 -0.0011072 0.0001091 -0.0004226 0.0003023 -0.0014548 0.0003922 -0.0019145 0.0002991 -0.0011195 -0.0001764 -0.0008377 -0.0000117 -0.0012133 0.0001730 -0.0013589 0.0002462 -0.0020473
0.0004099 -0.0001250 0.0002024 0.0000906 0.0001191 -0.0009855 -0.0001495 -0.0011324 0.0007530 0.0005834 -0.0001161 -0.0003773 0.0001841 -0.0007573 0.0001274 -0.0006886 0.0001544 -0.0003692 0.0002440 -0.0014049 -0.0000695 -0.0005809 0.0001806 -0.0008891 0.0001007 -0.0001757 0.0003248 -0.0013629 0.0003591 -0.0017592 0.0003405 -0.0008373 -0.0002990 -0.0008446 -0.0001490 -0.0009792 0.0001471 -0.0011709 0.0002434 -0.0018104
0.0004892 0.0002069 0.0002459 0.0003518 0.0000576 -0.0009243 -0.0002204 -0.0011749 0.0009347 0.0015262 -0.0001590 -0.0002722 0.0000432 -0.0005933 0.0001362 -0.0005912 0.0003084 -0.0003441 0.0001776 -0.0012322 -0.0000890 -0.0005986 0.0001666 -0.0006551 0.0000794 0.0000034 0.0002417 -0.0016450 0.0002857 -0.0019374 0.0004055 -0.0005667 -0.0004068 -0.0010292 -0.0003072 -0.0012765 0.0000812 -0.0012908 0.0001710 -0.0020955
0.0006107 0.0003601 0.0003505 0.0004740 -0.0000437 -0.0012146 -0.0002430 -0.0013233 0.0014480 0.0030378 -0.0001740 -0.0003984 0.0000716 -0.0006210 0.0001907 -0.0006964 0.0003797 -0.0005165 0.0001040 -0.0017199 -0.0000889 -0.0007243 0.0001232 -0.0009480 0.0000653 -0.0000954 0.0000893 -0.0021365 0.0002167 -0.0024493 0.0004227 -0.0007212 -0.0004234 -0.0013168 -0.0003436 -0.0018323 0.0000164 -0.0016886 0.0000855 -0.0027446
0.0006584 0.0001902 0.0004083 0.0004341 -0.0000835 -0.0015640 -0.0002448 -0.0015529 0.0013365 0.0018452 -0.0001671 -0.0005843 -0.0001018 -0.0006112 0.0002905 -0.0008255 0.0002243 -0.0006229 0.0001074 -0.0021231 -0.0000745 -0.0007721 0.0000721 -0.0013204 0.0000523 -0.0002519 0.0000874 -0.0022421 0.0002442 -0.0025650 0.0003917 -0.0009394 -0.0003745 -0.0012808 -0.0003225 -0.0017770 0.0000323 -0.0016552 0.0000694 -0.0027972
0.0006363 0.0000905 0.0003981 0.0004436 -0.0000256 -0.0014771 -0.0002348 -0.0014730 0.0012867 0.0007788 -0.0001460 -0.0004804 0.0000264 -0.0007204 0.0002858 -0.0005923 0.0003255 -0.0007127 0.0000930 -0.0018852 -0.0000837 -0.0007377 0.0001059 -0.0012467 0.0000444 -0.0001351 0.0001746 -0.0019878 0.0002876 -0.0021307 0.0003970 -0.0007714 -0.0003305 -0.0010640 -0.0003292 -0.0014207 0.0000655 -0.0012721 0.0000985 -0.0024083
0.0006565 0.0002938 0.0004037 0.0006273 0.0000169 -0.0011857 -0.0002236 -0.0012101 0.0009589 0.0011989 -0.0001286 -0.0002536 0.0000606 -0.0005548 0.0002678 -0.0002004 0.0004515 -0.0005642 0.0000879 -0.0015347 -0.0000974 -0.0006015 0.0001426 -0.0008523 0.0000377 0.0001482 0.0002130 -0.0016033 0.0002947 -0.0015358 0.0004018 -0.0004692 -0.0002710 -0.0008938 -0.0003161 -0.0011850 0.0000738 -0.0009626 0.0001363 -0.0020094
0.0006667 0.0004308 0.0004063 0.0006884 0.0000324 -0.0009959 -0.0002058 -0.0010061 0.0008648 -0.0000178 -0.0001268 -0.0002420 0.0000020 -0.0004984 0.0002820 -0.0000224 0.0003214 -0.0002981 0.0001270 -0.0015739 -0.0001036 -0.0006004 0.0001512 -0.0007103 0.0000281 0.0001736 0.0002317 -0.0014985 0.0003347 -0.0015721 0.0003967 -0.0004405 -0.0001908 -0.0009363 -0.0002942 -0.0014788 0.0000682 -0.0010059 0.0001576 -0.0019651
0.0006394 0.0002659 0.0003505 0.0005074 0.0000537 -0.0010716 -0.0001818 -0.0010088 0.0011698 -0.0009699 -0.0001242 -0.0003838 0.0002117 -0.0008525 0.0003113 -0.0001245 0.0002881 -0.0005159 0.0001488 -0.0018568 -0.0000770 -0.0006576 0.0001677 -0.0007813 0.0000283 -0.0000253 0.0002309 -0.0016084 0.0003905 -0.0019427 0.0003765 -0.0006258 -0.0001445 -0.0009773 -0.0002683 -0.0017499 0.0000745 -0.0010961 0.0001632 -0.0020463
0.0005966 0.0000620 0.0003057 0.0003434 0.0000818 -0.0010853 -0.0001583 -0.0009626 0.0023854 -0.0007084 -0.0001009 -0.0003473 0.0004179 -0.0007632 0.0004201 -0.0001296 0.0003101 -0.0007056 0.0001436 -0.0017975 -0.0000576 -0.0005907 0.0001671 -0.0007314 0.0000357 0.0000090 0.0002321 -0.0015098 0.0003868 -0.0017429 0.0003555 -0.0005986 -0.0001349 -0.0008235 -0.0002314 -0.0014472 0.0000817 -0.0008839 0.0001646 -0.0018306
0.0006009 0.0001071 0.0003297 0.0004268 0.0001019 -0.0008665 -0.0001403 -0.0007402 0.0011455 0.0007177 -0.0000847 -0.0001893 0.0001478 -0.0002326 0.0003886 0.0001372 0.0002814 -0.0005544 0.0001673 -0.0015538 -0.0000716 -0.0005201 0.0001765 -0.0006409 0.0000368 0.0002412 0.0002361 -0.0012792 0.0003693 -0.0013512 0.0003477 -0.0003843 -0.0001311 -0.0006767 -0.0001842 -0.0010584 0.0000633 -0.0005726 0.0001576 -0.0014768
0.0005957 0.0002835 0.0003199 0.0006739 0.0001000 -0.0006016 -0.0001336 -0.0004751 -0.0005287 0.0011523 -0.0000871 -0.0000537 -0.0000395 0.0000260 0.0001961 0.0002392 0.0002644 -0.0004133 0.0001851 -0.0014324 -0.0000899 -0.0005316 0.0001081 -0.0006681 0.0000244 0.0003796 0.0002025 -0.0011641 0.0003261 -0.0012569 0.0003391 -0.0002779 -0.0001041 -0.0006852 -0.0002050 -0.0011868 0.0000294 -0.0005418 0.0001315 -0.0015038
0.0005446 0.0002229 0.0003033 0.0005993 0.0001046 -0.0006605 -0.0001334 -0.0004876 -0.0024454 0.0038110 -0.0000883 -0.0001692 0.0000216 -0.0003619 0.0001426 -0.0000499 0.0002387 -0.0005608 0.0001279 -0.0016090 -0.0000910 -0.0006898 0.0000089 -0.0009307 0.0000048 0.0001975 0.0001949 -0.0012909 0.0002707 -0.0016353 0.0003224 -0.0004694 -0.0000990 -0.0008524 -0.0002359 -0.0016745 0.0000011 -0.0008019 0.0001014 -0.0018573
0.0005065 -0.0000620 0.0003015 0.0002538 0.0001064 -0.0009135 -0.0001452 -0.0007419 -0.0037504 0.0059337 -0.0000970 -0.0003807 0.0000835 -0.0006782 0.0001572 -0.0003212 0.0002966 -0.0008052 0.0001040 -0.0018393 -0.0000760 -0.0007983 0.0000314 -0.0010414 0.0000156 0.0000708 0.0002252 -0.0013314 0.0002518 -0.0017760 0.0003052 -0.0005977 -0.0001377 -0.0008729 -0.0002234 -0.0016390 -0.0000089 -0.0008107 0.0000921 -0.0018760
0.0004950 -0.0001134 0.0002659 0.0002119 0.0001090 -0.0008699 -0.0001610 -0.0007951 -0.0022214 0.0031558 -0.0001001 -0.0003462 -0.0000246 -0.0004720 0.0000851 -0.0002203 0.0003959 -0.0008177 0.0001294 -0.0017152 -0.0000695 -0.0007491 0.0000714 -0.0009041 0.0000269 0.0002107 0.0002505 -0.0011552 0.0002675 -0.0014561 0.0002860 -0.0004751 -0.0001698 -0.0007147 -0.0002333 -0.0012112 -0.0000173 -0.0005410 0.0000794 -0.0015738
0.0004727 0.0000043 0.0002243 0.0003735 0.0001148 -0.0006217 -0.0001716 -0.0006560 -0.0019877 0.0011474 -0.0000938 -0.0001654 -0.0001832 -0.0001944 0.0000785 -0.0000854 0.0003238 -0.0005109 0.0001035 -0.0013336 -0.0000846 -0.0006519 0.0000074 -0.0008179 0.0000077 0.0004061 0.0002460 -0.0008880 0.0002733 -0.0010296 0.0002498 -0.0002812 -0.0001897 -0.0005446 -0.0002306 -0.0007504 -0.0000419 -0.0002074 0.0000549 -0.0011723
0.0004180 0.0001415 0.0002234 0.0004939 0.0001081 -0.0003158 -0.0001906 -0.0004171 -0.0006271 0.0013270 -0.0001018 0.0000518 -0.0001031 -0.0002068 0.0001657 -0.0001001 0.0002258 -0.0002284 0.0000577 -0.0009518 -0.0001053 -0.0005973 -0.0001191 -0.0008726 -0.0000326 0.0005388 0.0001981 -0.0007222 0.0002340 -0.0008353 0.0002179 -0.0001518 -0.0001679 -0.0006028 -0.0002525 -0.0008268 -0.0001040 -0.0002112 0.0000789 -0.0009185
0.0003828 0.0000199 0.0002382 0.0003604 0.0001353 -0.0002098 -0.0002108 -0.0004719 0.0010677 -0.0006981 -0.0001412 -0.0001229 0.0001778 -0.0008810 0.0001702 -0.0003857 0.0002941 -0.0003476 0.0001047 -0.0010365 -0.0001139 -0.0007632 -0.0000893 -0.0008300 -0.0000549 0.0003938 0.0001221 -0.0009507 0.0002100 -0.0012522 0.0004015 0.0004080 -0.0001130 -0.0007571 -0.0003108 -0.0013289 -0.0001201 -0.0006023 0.0002010 -0.0005586
0.0003051 -0.0003857 0.0001001 -0.0000228 0.0002332 -0.0001727 -0.0002107 -0.0007571 0.0010326 -0.0025543 -0.0001646 -0.0004085 0.0000158 -0.0006950 0.0001655 -0.0009608 0.0002640 -0.0003836 0.0002214 -0.0012747 -0.0000969 -0.0008640 0.0000907 -0.0005431 -0.0000411 0.0001825 0.0001023 -0.0011144 0.0002425 -0.0014536 0.0005648 0.0009150 -0.0000695 -0.0007115 -0.0002657 -0.0013100 -0.0001061 -0.0007179 0.0003040 -0.0000806
0.0002634 -0.0005114 0.0000185 -0.0001613 0.0002762 -0.0000452 -0.0001925 -0.0007330 -0.0003394 0.0006880 -0.0001486 -0.0003175 -0.0000971 -0.0000531 -0.0000416 -0.0007535 0.0002258 -0.0001436 0.0002442 -0.0011206 -0.0000693 -0.0006743 0.0003170 -0.0001177 -0.0000190 0.0002996 0.0001127 -0.0009768 0.0003021 -0.0011622 0.0005208 0.0010043 -0.0000508 -0.0005750 -0.0002190 -0.0008455 -0.0001298 -0.0004329 0.0003014 0.0001254
0.0002878 -0.0002702 0.0000947 0.0000389 0.0002400 0.0000692 -0.0001791 -0.0004780 -0.0025020 0.0021907 -0.0001424 -0.0001287 0.0002527 -0.0004033 -0.0001186 -0.0001763 0.0002518 0.0001326 0.0001937 -0.0007922 -0.0000756 -0.0004737 0.0003876 0.0003105 -0.0000157 0.0005992 0.0000434 -0.0007844 0.0002770 -0.0007468 0.0004881 0.0012948 -0.0000324 -0.0004805 -0.0002112 -0.0003765 -0.0001604 -0.0000363 0.0002622 0.0003084
0.0002716 0.0000081 0.0001580 0.0002474 0.0001989 0.0003017 -0.0001679 -0.0001351 0.0001847 -0.0002134 -0.0001425 0.0001106 0.0002329 -0.0004801 -0.0000477 -0.0001012 0.0001960 0.0002737 0.0001254 -0.0004801 -0.0001110 -0.0003326 0.0002224 0.0003927 -0.0000533 0.0008158 -0.0000311 -0.0006398 0.0001681 -0.0003775 0.0004376 0.0014927 0.0000083 -0.0004627 -0.0002271 -0.0003928 -0.0002070 0.0001331 0.0001920 0.0002440
0.0002456 0.0000724 0.0001495 0.0002991 0.0001584 0.0002822 -0.0001716 -0.0000539 0.0018598 0.0003273 -0.0001648 0.0000561 -0.0000514 -0.0003625 0.0000181 -0.0004937 0.0001961 -0.0000262 0.0000910 -0.0006224 -0.0001161 -0.0003428 0.0001321 0.0001928 -0.0001046 0.0006194 -0.0000453 -0.0007495 0.0001461 -0.0006859 0.0003607 0.0012211 0.0000286 -0.0005952 -0.0002872 -0.0007603 -0.0002398 -0.0000037 0.0000907 -0.0001387
0.0002139 -0.0001239 0.0000701 0.0000829 0.0001260 -0.0000479 -0.0001870 -0.0002679 0.0021259 -0.0003160 -0.0001855 -0.0001909 0.0000166 -0.0002834 0.0001173 -0.0006540 0.0002309 -0.0002725 0.0001207 -0.0009055 -0.0000742 -0.0003535 0.0002648 0.0002136 -0.0001280 0.0002404 0.0000184 -0.0007560 0.0002239 -0.0009683 0.0002578 0.0007444 -0.0000133 -0.0007190 -0.0002573 -0.0007311 -0.0002382 0.0000369 0.0000382 -0.0001311
0.0001928 -0.0002760 0.0000037 -0.0001322 0.0000961 -0.0001853 -0.0002023 -0.0003420 0.0013928 0.0002177 -0.0001760 -0.0000982 0.0000920 -0.0002463 0.0001421 -0.0006824 0.0001810 -0.0002282 0.0001741 -0.0007111 -0.0000473 -0.0002187 0.0003583 0.0003354 -0.0001643 0.0000795 0.0000873 -0.0004790 0.0002457 -0.0006386 0.0001293 0.0005006 -0.0000942 -0.0007966 -0.0002095 -0.0002754 -0.0002362 0.0003570 0.0000041 0.0001760
0.0001647 -0.0002706 -0.0000501 -0.0001433 0.0000776 -0.0000752 -0.0002092 -0.0001531 -0.0009575 0.0038513 -0.0001567 0.0001962 0.0002397 -0.0005213 0.0001984 -0.0008575 0.0002440 -0.0001426 0.0002430 -0.0003014 -0.0000723 -0.0001117 0.0002352 0.0003694 -0.0002373 0.0000393 0.0001017 -0.0001303 0.0002105 -0.0001418 0.0000015 0.0004493 -0.0001667 -0.0008097 -0.0002150 0.0002950 -0.0002554 0.0007426 -0.0000683 0.0003674
0.0001409 -0.0001644 -0.0000577 -0.0000051 0.0000482 0.0000995 -0.0002235 0.0001016 -0.0011838 0.0032974 -0.0001582 0.0005063 -0.0000359 -0.0001890 0.0001266 -0.0005635 0.0001403 0.0001508 0.0001724 0.0001652 -0.0001144 -0.0000149 0.0000317 0.0002925 -0.0002888 0.0002230 0.0000839 0.0000736 0.0001527 0.0002529 -0.0000764 0.0005707 -0.0002108 -0.0005260 -0.0003279 0.0006102 -0.0003067 0.0009799 -0.0001929 0.0002360
0.0001482 0.0000566 -0.0000236 0.0002174 -0.0000239 0.0000687 -0.0002697 0.0000854 -0.0007241 0.0005483 -0.0001982 0.0004941 -0.0003590 -0.0003101 0.0000227 -0.0001938 -0.0000440 0.0000562 0.0000414 0.0001204 -0.0001312 -0.0000769 -0.0001628 -0.0001035 -0.0003238 0.0001658 0.0000434 -0.0001338 0.0000738 -0.0001455 -0.0001069 0.0004450 -0.0002193 -0.0004723 -0.0004881 0.0001046 -0.0003781 0.0007671 -0.0003268 -0.0003029
0.0001176 -0.0000288 -0.0000451 0.0001007 -0.0000780 -0.0002670 -0.0002927 -0.0001680 -0.0004210 0.0008265 -0.0002193 0.0002123 -0.0002607 -0.0007995 -0.0001306 -0.0001771 -0.0000253 -0.0003764 0.0000605 -0.0004110 -0.0001285 -0.0002669 -0.0002241 -0.0005965 -0.0003303 -0.0002041 0.0000294 -0.0004065 0.0000108 -0.0007657 -0.0001269 0.0001078 -0.0002243 -0.0006682 -0.0005440 -0.0004483 -0.0004128 0.0004982 -0.0003490 -0.0005876
0.0000882 -0.0002860 -0.0000977 -0.0000900 -0.0000697 -0.0004528 -0.0002769 -0.0002709 -0.0007558 -0.0000801 -0.0002059 0.0001511 -0.0001507 -0.0007332 -0.0001678 -0.0002469 -0.0000008 -0.0005172 0.0000610 -0.0005179 -0.0001230 -0.0002822 -0.0001667 -0.0006255 -0.0002881 -0.0002306 0.0000384 -0.0003093 0.0000587 -0.0007296 -0.0001422 0.0001032 -0.0002286 -0.0006176 -0.0005043 -0.0002270 -0.0004201 0.0005903 -0.0003148 -0.0004096
0.0001045 -0.0002401 -0.0000950 0.0000392 -0.0000557 -0.0003178 -0.0002604 -0.0001344 -0.0009630 -0.0003078 -0.0001818 0.0003110 -0.0000907 -0.0004368 0.0001164 -0.0003985 0.0000523 -0.0003745 0.0000188 -0.0002353 -0.0001234 -0.0001694 -0.0002077 -0.0004313 -0.0002592 0.0000004 0.0000447 -0.0001007 0.0001137 -0.0003827 -0.0001681 0.0002985 -0.0002278 -0.0004114 -0.0004839 0.0002138 -0.0004369 0.0008481 -0.0003128 -0.0001228
0.0001165 -0.0000490 -0.0000453 0.0002536 -0.0000555 -0.0000842 -0.0002510 0.0000977 -0.0006370 0.0021053 -0.0001667 0.0005487 -0.0002665 -0.0000526 0.0003354 -0.0004460 0.0000988 -0.0002360 0.0000387 0.0000387 -0.0001341 -0.0000216 -0.0002866 -0.0004614 -0.0002607 0.0002660 0.0000169 0.0000926 0.0000550 0.0000984 -0.0002072 0.0005130 -0.0002402 -0.0002030 -0.0005177 0.0006607 -0.0004751 0.0011607 -0.0003312 0.0002219
0.0000990 0.0001810 0.0000102 0.0004531 -0.0000691 0.0002132 -0.0002480 0.0004111 0.0008416 0.0006062 -0.0001763 0.0007836 -0.0001526 -0.0001096 0.0000970 0.0000492 0.0000731 -0.0000956 0.0000040 0.0002946 -0.0001551 0.0001919 -0.0003866 -0.0003485 -0.0002815 0.0005833 -0.0000544 0.0003517 -0.0000341 0.0005812 -0.0002541 0.0007535 -0.0002509 0.0000280 -0.0005639 0.0009950 -0.0005378 0.0014891 -0.0003836 0.0005550
0.0000787 0.0004641 0.0000223 0.0007359 -0.0001150 0.0004957 -0.0002682 0.0007144 0.0015708 -0.0020145 -0.0002099 0.0009330 -0.0003865 0.0000746 -0.0001768 0.0005763 -0.0000343 -0.0000938 -0.0001056 0.0004804 -0.0001771 0.0003091 -0.0005500 -0.0003718 -0.0003147 0.0007446 -0.0001201 0.0003428 -0.0001244 0.0004969 -0.0002836 0.0008057 -0.0002367 0.0001585 -0.0006944 0.0006538 -0.0006242 0.0013826 -0.0004943 0.0002696
0.0000889 0.0004638 0.0000187 0.0007624 -0.0001860 0.0002676 -0.0003141 0.0005296 0.0005509 -0.0014748 -0.0002696 0.0006610 -0.0006985 0.0002286 -0.0001698 0.0004122 -0.0001129 -0.0003245 -0.0002075 0.0002066 -0.0001874 0.0001323 -0.0006819 -0.0008927 -0.0003365 0.0005012 -0.0001512 -0.0000371 -0.0001890 -0.0002537 -0.0003015 0.0005145 -0.0002269 0.0000794 -0.0008255 -0.0000326 -0.0006943 0.0009016 -0.0005824 -0.0004286
0.0001298 0.0001524 0.0000256 0.0005213 -0.0002256 -0.0002168 -0.0003465 0.0000836 -0.0003212 0.0007038 -0.0003013 0.0003008 -0.0005538 -0.0002448 0.0000635 -0.0001640 -0.0000656 -0.0004978 -0.0001985 -0.0002415 -0.0001993 -0.0000563 -0.0006908 -0.0012865 -0.0003188 0.0002930 -0.0001612 -0.0002201 -0.0002111 -0.0006220 -0.0003160 0.0003292 -0.0002441 0.0000826 -0.0008280 -0.0000354 -0.0007160 0.0007546 -0.0005805 -0.0006081
0.0001579 0.0001006 0.0000418 0.0005443 -0.0002308 -0.0002649 -0.0003484 0.0000101 -0.0030671 0.0041175 -0.0002984 0.0003377 -0.0002762 -0.0002799 0.0001972 -0.0000485 0.0000083 -0.0005959 -0.0001527 -0.0002658 -0.0002076 -0.0000219 -0.0006698 -0.0011204 -0.0002866 0.0004478 -0.0001571 -0.0000705 -0.0002178 -0.0003011 -0.0003206 0.0004715 -0.0002652 0.0002462 -0.0008165 0.0003934 -0.0007214 0.0009461 -0.0005624 -0.0003595
0.0001461 0.0003133 0.0000478 0.0007411 -0.0002325 -0.0000775 -0.0003504 0.0001687 -0.0033558 0.0033496 -0.0002934 0.0004998 -0.0001126 -0.0001748 0.0000062 0.0003731 -0.0001031 -0.0004128 -0.0002175 -0.0000185 -0.0002120 0.0001118 -0.0006525 -0.0008776 -0.0002831 0.0007141 -0.0001729 0.0001255 -0.0002197 0.0000930 -0.0003399 0.0006884 -0.0002920 0.0004216 -0.0008409 0.0008055 -0.0007424 0.0012122 -0.0005673 -0.0000496
0.0001371 0.0005281 0.0000647 0.0009658 -0.0002564 0.0001687 -0.0003623 0.0003930 -0.0007454 0.0005320 -0.0002952 0.0006867 -0.0002491 0.0000393 0.0000783 0.0003235 -0.0000749 -0.0002532 -0.0002452 0.0002648 -0.0002247 0.0002984 -0.0006844 -0.0007064 -0.0003085 0.0009955 -0.0002308 0.0003155 -0.0002822 0.0004536 -0.0003792 0.0009176 -0.0003168 0.0006026 -0.0009207 0.0011368 -0.0007849 0.0015045 -0.0006015 0.0002499
0.0001286 0.0007608 0.0000966 0.0012051 -0.0002972 0.0004565 -0.0003801 0.0006593 -0.0013868 0.0018300 -0.0003173 0.0008595 -0.0002276 0.0002056 0.0001939 0.0003847 0.0000086 -0.0002284 -0.0002853 0.0005686 -0.0002423 0.0004253 -0.0007635 -0.0005308 -0.0003418 0.0011706 -0.0002909 0.0004322 -0.0003592 0.0005868 -0.0004050 0.0010608 -0.0002928 0.0006263 -0.0009901 0.0010062 -0.0008339 0.0014939 -0.0006345 0.0002047
0.0000835 0.0007320 0.0000657 0.0011740 -0.0003459 0.0003539 -0.0004074 0.0005768 -0.0009670 0.0007393 -0.0003434 0.0006800 -0.0000861 -0.0003352 0.0001772 0.0002155 -0.0000792 -0.0002852 -0.0003337 0.0004064 -0.0002609 0.0002850 -0.0008315 -0.0006774 -0.0003755 0.0009019 -0.0003328 0.0003141 -0.0003647 0.0001516 -0.0004212 0.0008587 -0.0002660 0.0003753 -0.0009563 0.0004519 -0.0008440 0.0011654 -0.0006350 -0.0001712
0.0000209 0.0003365 0.0000398 0.0007601 -0.0003699 0.0000118 -0.0004060 0.0002831 0.0010070 -0.0028744 -0.0003180 0.0004266 -0.0003274 -0.0003217 0.0002588 -0.0002137 -0.0000649 -0.0004680 -0.0003017 0.0000739 -0.0002702 0.0000935 -0.0008033 -0.0008514 -0.0003849 0.0005320 -0.0003439 0.0002099 -0.0003268 -0.0001498 -0.0004393 0.0006303 -0.0002706 0.0002208 -0.0008572 0.0003590 -0.0008117 0.0010474 -0.0005839 -0.0002377
0.0000036 0.0001423 0.0000288 0.0005497 -0.0003331 0.0000285 -0.0003696 0.0003089 0.0016479 -0.0020599 -0.0002714 0.0004937 -0.0005743 0.0003043 0.0001709 -0.0000178 -0.0001020 -0.0002499 -0.0002812 0.0002568 -0.0002685 0.0001172 -0.0006957 -0.0005458 -0.0003577 0.0005930 -0.0003290 0.0003948 -0.0002536 0.0000976 -0.0004412 0.0007640 -0.0002648 0.0003140 -0.0007941 0.0007771 -0.0007858 0.0012142 -0.0005131 0.0000360
0.0000066 0.0003265 0.0000510 0.0006757 -0.0002959 0.0002471 -0.0003446 0.0004966 0.0004802 0.0011596 -0.0002593 0.0006404 -0.0004767 0.0004151 0.0000617 0.0003391 -0.0001439 0.0000419 -0.0003125 0.0005763 -0.0002728 0.0002465 -0.0006848 -0.0000318 -0.0003382 0.0008588 -0.0003225 0.0006602 -0.0002025 0.0005000 -0.0004474 0.0010186 -0.0002600 0.0004366 -0.0007838 0.0011837 -0.0007750 0.0014796 -0.0004646 0.0003967
-0.0000054 0.0005625 0.0001058 0.0008003 -0.0002991 0.0004906 -0.0003401 0.0007222 0.0020625 -0.0010148 -0.0002579 0.0008306 -0.0001317 0.0002236 -0.0000335 0.0005577 -0.0001063 0.0001270 -0.0003792 0.0009076 -0.0002881 0.0004111 -0.0007690 0.0001967 -0.0003572 0.0011232 -0.0003634 0.0008792 -0.0002479 0.0009896 -0.0004843 0.0012423 -0.0002733 0.0005969 -0.0008205 0.0015174 -0.0007894 0.0017576 -0.0004741 0.0007453
-0.0000419 0.0007723 0.0000821 0.0009801 -0.0003314 0.0007778 -0.0003555 0.0009832 -0.0009282 0.0016386 -0.0002765 0.0010396 -0.0003885 0.0005582 -0.0000524 0.0008284 -0.0001980 0.0003781 -0.0004490 0.0012334 -0.0003100 0.0006016 -0.0008770 0.0003140 -0.0004041 0.0013732 -0.0004168 0.0010796 -0.0003110 0.0014288 -0.0005391 0.0014583 -0.0002796 0.0007735 -0.0008526 0.0017749 -0.0008214 0.0019330 -0.0005146 0.0008949
-0.0000603 0.0008880 0.0000663 0.0010759 -0.0003776 0.0008384 -0.0003910 0.0010072 -0.0024028 0.0034592 -0.0002964 0.0010045 -0.0008407 0.0009165 -0.0000581 0.0008297 -0.0002924 0.0003881 -0.0004506 0.0011112 -0.0003248 0.0005385 -0.0009862 0.0001920 -0.0004569 0.0012134 -0.0004440 0.0009398 -0.0003758 0.0010231 -0.0005679 0.0012975 -0.0002533 0.0006529 -0.0009133 0.0012240 -0.0008524 0.0016250 -0.0005537 0.0004660
-0.0000859 0.0006135 0.0000330 0.0008030 -0.0004144 0.0004581 -0.0004205 0.0006546 0.0018304 -0.0013707 -0.0003130 0.0006379 -0.0005585 0.0004628 0.0000393 0.0003039 -0.0003259 0.0000996 -0.0004134 0.0005827 -0.0003283 0.0002408 -0.0009991 -0.0002735 -0.0004695 0.0007382 -0.0004573 0.0005944 -0.0004135 0.0001970 -0.0005662 0.0008577 -0.0002559 0.0003942 -0.0009351 0.0004722 -0.0008567 0.0011343 -0.0005601 -0.0000671
-0.0001006 0.0002754 0.0000041 0.0005092 -0.0004235 0.0001157 -0.0004192 0.0003572 0.0021380 -0.0013928 -0.0003192 0.0004185 -0.0002568 0.0000587 0.0000978 0.0000990 -0.0004091 -0.0000086 -0.0004710 0.0004306 -0.0003248 0.0001294 -0.0008771 -0.0003365 -0.0004238 0.0006401 -0.0004208 0.0005509 -0.0003774 0.0000930 -0.0005437 0.0007712 -0.0002815 0.0003544 -0.0008384 0.0005982 -0.0008236 0.0010429 -0.0005027 -0.0000861
-0.0000424 0.0003233 0.0000419 0.0005912 -0.0004191 0.0000719 -0.0004012 0.0003425 0.0000843 0.0024838 -0.0003143 0.0004783 -0.0005153 0.0003864 -0.0000153 0.0002739 -0.0003918 0.0001748 -0.0004822 0.0006092 -0.0003323 0.0001662 -0.0007977 -0.0001267 -0.0003791 0.0008294 -0.0004011 0.0006360 -0.0003769 0.0003799 -0.0005262 0.0009284 -0.0003118 0.0003800 -0.0007979 0.0009671 -0.0008031 0.0011663 -0.0004692 0.0000574
-0.0000154 0.0005602 0.0000582 0.0008623 -0.0004264 0.0001638 -0.0004036 0.0004386 -0.0020100 0.0034355 -0.0003264 0.0006305 -0.0004107 0.0002907 -0.0000458 0.0003405 -0.0003267 0.0004147 -0.0004708 0.0007907 -0.0003547 0.0002270 -0.0008627 -0.0000469 -0.0003875 0.0010255 -0.0004334 0.0007248 -0.0004028 0.0007156 -0.0005458 0.0010784 -0.0003560 0.0004229 -0.0008285 0.0012707 -0.0008078 0.0013855 -0.0004683 0.0003023
-0.0000377 0.0007549 0.0000552 0.0010627 -0.0004344 0.0004219 -0.0004242 0.0006108 -0.0022607 0.0033461 -0.0003374 0.0008467 -0.0004721 0.0002710 -0.0001805 0.0004984 -0.0003974 0.0006533 -0.0005533 0.0011090 -0.0003759 0.0003753 -0.0010301 0.0001867 -0.0004356 0.0012345 -0.0004728 0.0009225 -0.0004171 0.0010820 -0.0005818 0.0012473 -0.0003787 0.0005543 -0.0008630 0.0015615 -0.0008237 0.0016617 -0.0004862 0.0006512
-0.0000660 0.0009543 0.0000498 0.0012281 -0.0004591 0.0007554 -0.0004518 0.0008478 -0.0012742 0.0026670 -0.0003569 0.0010597 -0.0009132 0.0007298 -0.0002472 0.0008424 -0.0004948 0.0009991 -0.0006368 0.0015657 -0.0003944 0.0005876 -0.0011437 0.0004770 -0.0004847 0.0014621 -0.0005032 0.0011162 -0.0005205 0.0014444 -0.0006181 0.0014174 -0.0003795 0.0007430 -0.0009365 0.0016671 -0.0008490 0.0017075 -0.0005405 0.0005845
-0.0000555 0.0010226 0.0000505 0.0012643 -0.0005088 0.0006829 -0.0004974 0.0007363 -0.0002680 0.0005023 -0.0003913 0.0009495 -0.0009020 0.0007397 -0.0001105 0.0008392 -0.0003696 0.0006622 -0.0006217 0.0013948 -0.0003988 0.0005062 -0.0011732 0.0001861 -0.0005201 0.0012616 -0.0005031 0.0008736 -0.0005725 0.0009102 -0.0006349 0.0011974 -0.0003514 0.0006464 -0.0010331 0.0010155 -0.0008683 0.0013019 -0.0005878 -0.0000169
-0.0000421 0.0007041 0.0000704 0.0009431 -0.0005289 0.0002066 -0.0005292 0.0002857 0.0014100 -0.0004220 -0.0004170 0.0005651 -0.0008005 0.0005789 0.0000372 0.0004990 -0.0001956 0.0000454 -0.0005616 0.0008135 -0.0003803 0.0002506 -0.0010831 -0.0002748 -0.0005091 0.0008011 -0.0004843 0.0005176 -0.0004974 0.0000205 -0.0006116 0.0007956 -0.0003321 0.0004849 -0.0010397 0.0004398 -0.0008389 0.0009385 -0.0005700 -0.0004376
-0.0000648 0.0004348 0.0000304 0.0007325 -0.0004845 -0.0000139 -0.0005221 0.0000723 0.0012515 -0.0011263 -0.0004096 0.0004533 -0.0012083 0.0010613 0.0000032 0.0005141 -0.0003205 0.0000723 -0.0005481 0.0007304 -0.0003444 0.0002581 -0.0009192 -0.0001097 -0.0004591 0.0007345 -0.0004290 0.0005584 -0.0004579 0.0000764 -0.0005715 0.0007622 -0.0003362 0.0005576 -0.0009391 0.0005969 -0.0007713 0.0009751 -0.0005117 -0.0003604
-0.0000503 0.0004531 -0.0000057 0.0007931 -0.0004347 0.0001255 -0.0004963 0.0001672 -0.0012317 0.0000911 -0.0003863 0.0005775 -0.0011857 0.0012716 -0.0001236 0.0006333 -0.0004269 0.0002774 -0.0006009 0.0009990 -0.0003174 0.0004202 -0.0008200 0.0003938 -0.0004237 0.0009203 -0.0003827 0.0007433 -0.0004200 0.0004456 -0.0005467 0.0009383 -0.0003401 0.0006749 -0.0008842 0.0008719 -0.0007228 0.0011777 -0.0004602 -0.0000897
-0.0000485 0.0005947 -0.0000053 0.0009503 -0.0004195 0.0003518 -0.0004784 0.0003660 0.0001104 -0.0011440 -0.0003767 0.0007218 -0.0005468 0.0010345 -0.0001587 0.0009979 -0.0004095 0.0004333 -0.0006344 0.0012806 -0.0003110 0.0006072 -0.0008174 0.0007808 -0.0004185 0.0011545 -0.0003970 0.0009513 -0.0004331 0.0008409 -0.0005419 0.0011325 -0.0003406 0.0008157 -0.0009044 0.0011679 -0.0007112 0.0014291 -0.0004426 0.0002319
-0.0000825 0.0008060 -0.0000094 0.0011305 -0.0004269 0.0006048 -0.0004757 0.0006097 -0.0003468 -0.0004026 -0.0003875 0.0008655 -0.0004991 0.0011704 -0.0000600 0.0011703 -0.0003823 0.0004898 -0.0005638 0.0014191 -0.0003164 0.0007001 -0.0009016 0.0007818 -0.0004388 0.0012371 -0.0004301 0.0010064 -0.0004823 0.0008636 -0.0005460 0.0011658 -0.0003083 0.0008594 -0.0009505 0.0009946 -0.0007208 0.0013305 -0.0004682 0.0000608
-0.0000944 0.0007344 -0.0000097 0.0009997 -0.0004507 0.0004580 -0.0004895 0.0004833 -0.0017209 0.0012435 -0.0004077 0.0006715 -0.0006513 0.0010112 -0.0000283 0.0008932 -0.0003627 0.0002609 -0.0004938 0.0010698 -0.0003140 0.0005456 -0.0009345 0.0005084 -0.0004453 0.0009601 -0.0004211 0.0007333 -0.0004431 0.0002031 -0.0005369 0.0008999 -0.0002762 0.0006963 -0.0009798 0.0003208 -0.0007087 0.0008728 -0.0004644 -0.0004853
-0.0000877 0.0003939 0.0000078 0.0006240 -0.0004235 0.0000693 -0.0004866 0.0000957 -0.0023362 0.0043028 -0.0004006 0.0003634 -0.0006652 0.0010675 0.0000167 0.0006028 -0.0003062 -0.0000241 -0.0004647 0.0006495 -0.0002741 0.0004317 -0.0006701 0.0006463 -0.0003911 0.0007131 -0.0003695 0.0004706 -0.0003123 -0.0002614 -0.0004415 0.0009080 -0.0002708 0.0005530 -0.0009102 0.0000434 -0.0006490 0.0005958 -0.0003247 -0.0003647
-0.0000779 0.0002100 -0.0000144 0.0004883 -0.0002779 0.0002455 -0.0004253 0.0000189 -0.0012616 0.0046697 -0.0003739 0.0003554 -0.0002052 0.0011217 -0.0000777 0.0006018 -0.0004239 0.0001529 -0.0004850 0.0007471 -0.0002095 0.0005757 -0.0004564 0.0010422 -0.0003206 0.0007833 -0.0003625 0.0004264 -0.0002512 -0.0000217 -0.0003679 0.0011250 -0.0002595 0.0005697 -0.0008136 0.0002781 -0.0005939 0.0006298 -0.0002201 -0.0000449
-0.0000882 0.0002996 -0.0000458 0.0006153 -0.0001857 0.0005503 -0.0003632 0.0001966 -0.0007607 0.0013032 -0.0003592 0.0004773 -0.0000678 0.0012469 -0.0001000 0.0008214 -0.0004766 0.0004535 -0.0005013 0.0009986 -0.0001802 0.0007632 -0.0004975 0.0011713 -0.0002906 0.0009374 -0.0003588 0.0005091 -0.0002396 0.0003512 -0.0003887 0.0011485 -0.0002377 0.0006432 -0.0007688 0.0005567 -0.0005560 0.0008811 -0.0002167 0.0000719
-0.0001026 0.0005045 -0.0000330 0.0007841 -0.0002037 0.0006670 -0.0003391 0.0004891 0.0001978 -0.0004861 -0.0003581 0.0006696 -0.0001429 0.0012867 0.0000314 0.0008417 -0.0003489 0.0005513 -0.0004609 0.0012258 -0.0002045 0.0009005 -0.0004703 0.0012500 -0.0003109 0.0010860 -0.0003360 0.0007852 -0.0002321 0.0007993 -0.0004050 0.0012896 -0.0002229 0.0006036 -0.0006875 0.0008821 -0.0005070 0.0012855 -0.0001707 0.0005057
-0.0001963 0.0005870 -0.0001036 0.0008143 -0.0001888 0.0009893 -0.0003180 0.0009142 0.0030502 -0.0027757 -0.0003272 0.0009875 -0.0004366 0.0011353 0.0000082 0.0006041 -0.0004343 0.0009254 -0.0004062 0.0016434 -0.0002431 0.0010745 -0.0004189 0.0015087 -0.0003884 0.0011526 -0.0003459 0.0012181 -0.0002358 0.0013506 -0.0004332 0.0014832 -0.0001796 0.0005347 -0.0005793 0.0011413 -0.0004774 0.0015268 -0.0001484 0.0007363
-0.0002553 0.0005862 -0.0001768 0.0006818 -0.0001753 0.0010993 -0.0002991 0.0010946 0.0006539 0.0007362 -0.0002960 0.0010208 -0.0007934 0.0011960 -0.0000339 0.0006830 -0.0004275 0.0010736 -0.0003677 0.0016503 -0.0002381 0.0010976 -0.0003227 0.0016180 -0.0004222 0.0008962 -0.0003840 0.0011049 -0.0002986 0.0009538 -0.0004381 0.0012490 -0.0000942 0.0002875 -0.0005241 0.0004898 -0.0005027 0.0010940 -0.0001664 0.0001631
-0.0002338 0.0003082 -0.0001383 0.0004003 -0.0002381 0.0005537 -0.0002884 0.0007861 -0.0006096 0.0033945 -0.0003046 0.0005828 -0.0005114 0.0011955 0.0000012 0.0008301 -0.0002889 0.0006955 -0.0002854 0.0009175 -0.0001769 0.0009369 -0.0003388 0.0008492 -0.0003863 0.0003801 -0.0004986 0.0003573 -0.0003302 -0.0000093 -0.0004838 0.0004945 -0.0000313 -0.0000208 -0.0004185 -0.0004044 -0.0005469 0.0004107 -0.0002332 -0.0006773
-0.0002836 -0.0002479 -0.0001208 0.0001323 -0.0003382 -0.0001133 -0.0002912 0.0004354 -0.0008536 0.0028831 -0.0003025 0.0002978 -0.0005538 0.0014209 0.0000833 0.0006937 -0.0003123 0.0004007 -0.0002140 0.0004734 -0.0001379 0.0008151 -0.0005210 -0.0001699 -0.0003643 0.0001087 -0.0006156 -0.0001586 -0.0002434 -0.0003173 -0.0005786 -0.0000848 -0.0000003 0.0000327 -0.0002831 -0.0003842 -0.0005645 0.0001675 -0.0003127 -0.0011050
-0.0003072 -0.0004382 -0.0001261 0.0001153 -0.0003587 -0.0003323 -0.0002928 0.0003356 -0.0007829 0.0022431 -0.0002928 0.0003317 -0.0005746 0.0012006 0.0000113 0.0006955 -0.0004386 0.0004008 -0.0002310 0.0005666 -0.0001521 0.0007512 -0.0005892 -0.0004773 -0.0003634 0.0001435 -0.0006122 -0.0001997 -0.0001675 -0.0000860 -0.0006044 -0.0001667 -0.0000022 0.0000289 -0.0001659 0.0000433 -0.0005296 0.0003466 -0.0002721 -0.0008635
-0.0003187 -0.0003267 -0.0001067 0.0001556 -0.0003198 -0.0001402 -0.0002677 0.0005183 0.0005249 0.0016416 -0.0002776 0.0004817 -0.0003644 0.0008788 0.0000566 0.0006780 -0.0004255 0.0005079 -0.0002709 0.0008804 -0.0001718 0.0008082 -0.0005869 -0.0003068 -0.0003597 0.0003377 -0.0005604 -0.0000163 -0.0001308 0.0003170 -0.0005896 0.0000207 -0.0000194 0.0001207 -0.0001662 0.0003771 -0.0005132 0.0005915 -0.0002382 -0.0006044
-0.0002663 -0.0000317 -0.0000543 0.0004672 -0.0003103 0.0000877 -0.0002678 0.0006904 -0.0001802 0.0032963 -0.0002905 0.0006189 -0.0003942 0.0013553 0.0001581 0.0009789 -0.0003844 0.0005103 -0.0003041 0.0010670 -0.0001876 0.0009310 -0.0006425 0.0000240 -0.0003340 0.0006864 -0.0005394 0.0001263 -0.0001543 0.0005858 -0.0005659 0.0002737 -0.0000363 0.0004279 -0.0002657 0.0005790 -0.0005488 0.0007772 -0.0002708 -0.0005295
-0.0001605 0.0004401 -0.0000017 0.0009648 -0.0003313 0.0002912 -0.0003035 0.0007415 0.0007956 0.0029728 -0.0003364 0.0006761 -0.0004404 0.0015247 0.0001812 0.0011482 -0.0002916 0.0004372 -0.0002944 0.0010722 -0.0001939 0.0009371 -0.0005821 0.0000954 -0.0003253 0.0007977 -0.0005722 0.0000212 -0.0002091 0.0003447 -0.0005506 0.0002952 -0.0000248 0.0004999 -0.0003375 0.0002069 -0.0005923 0.0005427 -0.0003303 -0.0009538
-0.0001220 0.0003289 0.0000356 0.0009143 -0.0004028 -0.0000606 -0.0003448 0.0003976 -0.0000185 0.0038631 -0.0003709 0.0004092 -0.0005054 0.0015416 0.0003366 0.0010496 -0.0002607 0.0004760 -0.0002693 0.0007487 -0.0001443 0.0008091 -0.0005692 -0.0005667 -0.0003452 0.0003808 -0.0006653 -0.0005725 -0.0002754 -0.0004687 -0.0005903 -0.0002582 0.0000046 0.0003572 -0.0004022 -0.0007680 -0.0006710 -0.0002313 -0.0004828 -0.0020321
-0.0001589 -0.0002525 0.0000488 0.0004023 -0.0004973 -0.0008728 -0.0003864 -0.0002289 -0.0000144 0.0034143 -0.0003826 -0.0000110 -0.0002450 0.0011695 0.0003374 0.0009639 -0.0002637 0.0002115 -0.0002586 0.0001618 -0.0001116 0.0006119 -0.0007981 -0.0014348 -0.0003593 -0.0000650 -0.0007443 -0.0011284 -0.0002403 -0.0009921 -0.0006369 -0.0008175 0.0000155 0.0002730 -0.0003417 -0.0009611 -0.0007132 -0.0006460 -0.0005706 -0.0025368
-0.0002222 -0.0005147 0.0000040 0.0001469 -0.0005155 -0.0011529 -0.0003989 -0.0004628 0.0004163 0.0026322 -0.0003677 -0.0000931 -0.0001150 0.0006685 0.0002381 0.0008496 -0.0002109 -0.0000355 -0.0002313 0.0000017 -0.0001378 0.0004457 -0.0009623 -0.0016890 -0.0003605 -0.0001452 -0.0007439 -0.0012195 -0.0001239 -0.0008825 -0.0006469 -0.0008844 0.0000317 0.0002917 -0.0001877 -0.0004819 -0.0006950 -0.0005489 -0.0005397 -0.0023902
-0.0002360 -0.0004744 -0.0000165 0.0002284 -0.0004701 -0.0010131 -0.0003870 -0.0003954 -0.0004048 0.0032085 -0.0003563 0.0000186 -0.0004243 0.0008743 0.0003693 0.0007180 -0.0002702 0.0001210 -0.0002450 0.0002303 -0.0001722 0.0003904 -0.0009208 -0.0016283 -0.0003560 0.0000057 -0.0007075 -0.0010921 -0.0000865 -0.0004605 -0.0006451 -0.0007467 0.0000448 0.0003508 -0.0001100 -0.0001272 -0.0006758 -0.0003171 -0.0004986 -0.0020782
-0.0002111 -0.0003073 -0.0000297 0.0004505 -0.0004339 -0.0007586 -0.0003795 -0.0002334 0.0010165 0.0015817 -0.0003550 0.0001726 -0.0005065 0.0010095 0.0004419 0.0008476 -0.0002699 0.0002773 -0.0002235 0.0004544 -0.0002082 0.0004557 -0.0008125 -0.0014387 -0.0003619 0.0002574 -0.0006862 -0.0008394 -0.0001273 0.0000409 -0.0006403 -0.0005172 0.0000443 0.0004655 -0.0001221 0.0001526 -0.0006611 -0.0000108 -0.0004745 -0.0017334
-0.0001700 -0.0000685 0.0000073 0.0006481 -0.0004216 -0.0005303 -0.0003865 -0.0000868 -0.0005899 0.0030677 -0.0003611 0.0002709 -0.0003725 0.0009861 0.0005003 0.0009309 -0.0002312 0.0002615 -0.0002043 0.0004737 -0.0002153 0.0004783 -0.0008035 -0.0012420 -0.0003879 0.0002466 -0.0006984 -0.0008700 -0.0001616 -0.0001335 -0.0006410 -0.0005473 0.0000518 0.0003966 -0.0001705 -0.0002364 -0.0006766 -0.0001824 -0.0005139 -0.0020046
-0.0001673 -0.0002114 0.0000074 0.0004812 -0.0004570 -0.0007950 -0.0004096 -0.0003205 -0.0004885 0.0024623 -0.0003827 0.0000453 -0.0003852 0.0009720 0.0005566 0.0005806 -0.0001584 -0.0000376 -0.0001905 0.0000634 -0.0001880 0.0003429 -0.0008601 -0.0015697 -0.0004144 -0.0001529 -0.0007338 -0.0012699 -0.0001601 -0.0008349 -0.0006445 -0.0009066 0.0000648 0.0001953 -0.0001833 -0.0009210 -0.0007017 -0.0007159 -0.0005366 -0.0025788
-0.0001987 -0.0005977 -0.0000203 0.0001165 -0.0004882 -0.0012588 -0.0004244 -0.0006994 0.0000886 0.0010422 -0.0003884 -0.0002006 -0.0003935 0.0009377 0.0004473 0.0003502 -0.0001194 -0.0003514 -0.0001806 -0.0002445 -0.0001721 0.0002360 -0.0008924 -0.0020001 -0.0004119 -0.0003833 -0.0007383 -0.0015063 -0.0001209 -0.0010049 -0.0006321 -0.0010436 0.0000613 0.0001512 -0.0001140 -0.0008054 -0.0006988 -0.0008464 -0.0004803 -0.0024996
-0.0002052 -0.0006466 -0.0000015 0.0000541 -0.0004517 -0.0012364 -0.0004175 -0.0007182 0.0006598 0.0003442 -0.0003781 -0.0001426 -0.0004778 0.0007216 0.0003218 0.0004240 -0.0001324 -0.0004475 -0.0002137 -0.0001013 -0.0001957 0.0001998 -0.0008505 -0.0019155 -0.0003915 -0.0002264 -0.0007111 -0.0014033 -0.0000735 -0.0006822 -0.0005693 -0.0007437 0.0000640 0.0001798 -0.0000625 -0.0004403 -0.0006756 -0.0006801 -0.0003678 -0.0019619
-0.0001637 -0.0004459 0.0000257 0.0002596 -0.0003743 -0.0009229 -0.0003946 -0.0005126 -0.0004537 0.0014047 -0.0003767 0.0000288 -0.0008734 0.0010433 0.0003175 0.0004122 -0.0001786 -0.0003358 -0.0001609 0.0000347 -0.0002280 0.0002444 -0.0007596 -0.0015378 -0.0003790 0.0000553 -0.0006638 -0.0011487 -0.0000431 -0.0002795 -0.0005093 -0.0003404 0.0000718 0.0002363 -0.0000846 -0.0002155 -0.0006315 -0.0003425 -0.0002835 -0.0014311
-0.0001253 -0.0001536 0.0000115 0.0005218 -0.0003141 -0.0005728 -0.0003716 -0.0002310 -0.0034445 0.0056516 -0.0003779 0.0002085 -0.0006161 0.0010998 0.0001585 0.0006106 -0.0002927 -0.0002828 -0.0001672 0.0001659 -0.0002380 0.0002947 -0.0006884 -0.0012046 -0.0003825 0.0001806 -0.0006196 -0.0010217 -0.0000349 -0.0003110 -0.0004794 -0.0001974 0.0000867 0.0002321 -0.0001477 -0.0003730 -0.0005910 -0.0002834 -0.0003106 -0.0015963
-0.0001038 -0.0001297 -0.0000051 0.0004873 -0.0003189 -0.0006704 -0.0003745 -0.0002982 -0.0013127 0.0059920 -0.0003815 0.0001124 -0.0002519 0.0009547 0.0001362 0.0006273 -0.0002256 -0.0004887 -0.0001869 -0.0000726 -0.0001953 0.0002766 -0.0006613 -0.0013569 -0.0003993 -0.0000710 -0.0006223 -0.0012898 -0.0000603 -0.0008039 -0.0004940 -0.0005023 0.0000979 0.0001096 -0.0001792 -0.0009038 -0.0005974 -0.0006568 -0.0003855 -0.0021821
-0.0001261 -0.0004819 0.0000236 0.0001376 -0.0003567 -0.0010819 -0.0003906 -0.0006045 -0.0003496 0.0025242 -0.0003834 -0.0000925 -0.0003453 0.0009163 0.0003714 0.0003022 -0.0001634 -0.0005606 -0.0001229 -0.0003759 -0.0001529 0.0002646 -0.0006651 -0.0017295 -0.0004126 -0.0003221 -0.0006466 -0.0015143 -0.0000178 -0.0009840 -0.0005281 -0.0007971 0.0001042 0.0000799 -0.0001224 -0.0009127 -0.0006021 -0.0007977 -0.0004171 -0.0023068
-0.0001619 -0.0006556 -0.0000531 0.0000536 -0.0003567 -0.0011455 -0.0003877 -0.0006172 -0.0027465 0.0007353 -0.0003760 -0.0000728 -0.0001686 0.0005031 0.0002823 0.0003938 -0.0002482 -0.0002994 -0.0001535 -0.0002105 -0.0001672 0.0002763 -0.0007083 -0.0016614 -0.0004027 -0.0002363 -0.0006251 -0.0013909 0.0000341 -0.0007190 -0.0005162 -0.0007059 0.0001155 0.0001462 -0.0000510 -0.0005749 -0.0005694 -0.0006033 -0.0003815 -0.0020187
-0.0001461 -0.0005149 -0.0000854 0.0002272 -0.0003130 -0.0008924 -0.0003651 -0.0004088 -0.0025830 0.0016170 -0.0003691 0.0000729 -0.0000355 0.0005477 0.0002649 0.0005474 -0.0001735 -0.0003122 -0.0001779 -0.0000352 -0.0001946 0.0003499 -0.0007235 -0.0012993 -0.0003903 0.0000154 -0.0005798 -0.0011465 0.0000029 -0.0003056 -0.0004926 -0.0004434 0.0001207 0.0002383 -0.0000592 -0.0003839 -0.0005426 -0.0003964 -0.0003329 -0.0017208
-0.0001053 -0.0003584 -0.0000280 0.0003203 -0.0002295 -0.0005989 -0.0003441 -0.0003134 0.0010518 -0.0006138 -0.0003678 0.0001116 -0.0001740 0.0008458 0.0002921 0.0005749 -0.0001498 -0.0004825 -0.0001127 -0.0002076 -0.0001712 0.0003736 -0.0006477 -0.0012290 -0.0004106 -0.0000762 -0.0005820 -0.0012234 -0.0000474 -0.0004925 -0.0004897 -0.0004968 0.0001329 0.0001825 -0.0001449 -0.0007841 -0.0005605 -0.0006536 -0.0003377 -0.0018831
-0.0001527 -0.0005925 -0.0000749 0.0000842 -0.0001792 -0.0007003 -0.0003348 -0.0005351 0.0006943 0.0000290 -0.0003760 -0.0001083 0.0000591 0.0006979 0.0002124 0.0005252 -0.0002069 -0.0004624 -0.0000661 -0.0005281 -0.0001043 0.0003469 -0.0005766 -0.0016249 -0.0004458 -0.0005120 -0.0006166 -0.0015923 0.0000227 -0.0010623 -0.0005095 -0.0008872 0.0001387 0.0000699 -0.0001414 -0.0011675 -0.0006010 -0.0010935 -0.0003851 -0.0022276
-0.0002369 -0.0009583 -0.0001400 -0.0002606 -0.0002200 -0.0010299 -0.0003352 -0.0007333 -0.0004345 0.0021790 -0.0003881 -0.0002356 0.0000736 0.0004598 0.0003542 0.0005808 -0.0001578 -0.0003469 -0.0000066 -0.0005389 -0.0000849 0.0003611 -0.0006172 -0.0018957 -0.0004605 -0.0006801 -0.0006195 -0.0017081 0.0000927 -0.0010264 -0.0005274 -0.0010331 0.0001375 0.0001096 -0.0000379 -0.0008521 -0.0006042 -0.0010938 -0.0004013 -0.0022271
-0.0002390 -0.0009570 -0.0001729 -0.0002465 -0.0002422 -0.0010651 -0.0003292 -0.0006521 0.0002794 0.0026050 -0.0003916 -0.0001179 -0.0001104 0.0006110 0.0002633 0.0008864 -0.0001502 -0.0001955 0.0000284 -0.0003031 -0.0001094 0.0003950 -0.0006405 -0.0017671 -0.0004623 -0.0005466 -0.0005722 -0.0015566 0.0000842 -0.0006734 -0.0005279 -0.0008999 0.0001456 0.0001916 -0.0000040 -0.0005413 -0.0005790 -0.0008205 -0.0003880 -0.0020251
-0.0002302 -0.0007754 -0.0001888 -0.0000398 -0.0002300 -0.0008675 -0.0003133 -0.0004079 -0.0022264 0.0042270 -0.0003896 0.0000706 -0.0001187 0.0007749 0.0001672 0.0009721 -0.0001732 -0.0000933 -0.0000091 -0.0000325 -0.0001376 0.0004981 -0.0006580 -0.0014206 -0.0004683 -0.0003207 -0.0005373 -0.0013018 0.0001103 -0.0003442 -0.0005281 -0.0006870 0.0001630 0.0002721 -0.0000228 -0.0004257 -0.0005484 -0.0006244 -0.0003870 -0.0019668
-0.0002108 -0.0006336 -0.0001656 0.0000368 -0.0002332 -0.0008398 -0.0003054 -0.0003372 -0.0030200 0.0045262 -0.0003880 0.0000824 0.0000508 0.0006908 0.0003885 0.0006369 -0.0001351 -0.0001758 -0.0000052 -0.0002025 -0.0001196 0.0005368 -0.0006667 -0.0014065 -0.0004877 -0.0004675 -0.0005568 -0.0014254 0.0000919 -0.0006778 -0.0005459 -0.0008711 0.0001797 0.0001934 -0.0000674 -0.0008635 -0.0005581 -0.0009063 -0.0004472 -0.0023741
-0.0002116 -0.0008956 -0.0001705 -0.0002417 -0.0002938 -0.0012742 -0.0003274 -0.0006256 0.0007750 0.0020609 -0.0004004 -0.0001652 0.0003893 0.0004428 0.0005078 0.0002725 -0.0000353 -0.0004111 0.0000515 -0.0005973 -0.0000685 0.0004705 -0.0006788 -0.0018811 -0.0005096 -0.0009064 -0.0005859 -0.0017907 0.0000731 -0.0012451 -0.0005718 -0.0013197 0.0001802 0.0000888 -0.0000483 -0.0011598 -0.0005951 -0.0012620 -0.0005101 -0.0027677
-0.0002518 -0.0011879 -0.0001604 -0.0005275 -0.0003564 -0.0016161 -0.0003496 -0.0008232 0.0027732 -0.0019288 -0.0004047 -0.0002788 0.0002512 0.0003715 0.0005877 0.0002258 0.0000973 -0.0006563 0.0001331 -0.0006857 -0.0000694 0.0004163 -0.0007493 -0.0020187 -0.0005065 -0.0009973 -0.0005752 -0.0018034 0.0001238 -0.0011492 -0.0005771 -0.0014033 0.0001873 0.0001187 0.0000424 -0.0008368 -0.0005879 -0.0011833 -0.0004922 -0.0026740
-0.0002654 -0.0011127 -0.0001420 -0.0004743 -0.0003437 -0.0015051 -0.0003336 -0.0006928 0.0020146 -0.0030334 -0.0003897 -0.0001638 -0.0000027 0.0004258 0.0005828 0.0002745 0.0001271 -0.0006475 0.0001767 -0.0005972 -0.0001039 0.0004209 -0.0007351 -0.0017967 -0.0004928 -0.0007962 -0.0005566 -0.0015731 0.0001147 -0.0007489 -0.0005730 -0.0012292 0.0002056 0.0001627 0.0000964 -0.0005778 -0.0005547 -0.0009075 -0.0004510 -0.0023693
-0.0002360 -0.0009480 -0.0001622 -0.0002705 -0.0003030 -0.0012347 -0.0003087 -0.0004372 0.0004692 -0.0011740 -0.0003822 0.0000118 -0.0003005 0.0006518 0.0005183 0.0004255 -0.0000379 -0.0002869 0.0000892 -0.0002963 -0.0001354 0.0004891 -0.0007335 -0.0015079 -0.0004832 -0.0005276 -0.0005473 -0.0012731 0.0000610 -0.0003294 -0.0005622 -0.0009780 0.0002107 0.0002277 0.0001158 -0.0003926 -0.0005279 -0.0005736 -0.0004265 -0.0020184
-0.0002076 -0.0007186 -0.0001408 -0.0000683 -0.0002791 -0.0009444 -0.0002995 -0.0001933 0.0019675 -0.0014436 -0.0003801 0.0001341 -0.0003026 0.0010420 0.0005046 0.0004858 -0.0001323 -0.0001978 0.0000687 -0.0002700 -0.0001539 0.0004937 -0.0006933 -0.0013584 -0.0004856 -0.0004615 -0.0005268 -0.0012248 0.0000390 -0.0004778 -0.0005416 -0.0009425 0.0002209 0.0001797 0.0000973 -0.0007272 -0.0005238 -0.0006645 -0.0004347 -0.0021787
-0.0002138 -0.0008011 -0.0001039 -0.0001971 -0.0003115 -0.0011599 -0.0003141 -0.0003605 0.0020659 -0.0000614 -0.0003792 -0.0000604 0.0000192 0.0009993 0.0004968 0.0003245 0.0000201 -0.0005748 0.0000664 -0.0006073 -0.0001097 0.0004594 -0.0006688 -0.0016790 -0.0004987 -0.0007822 -0.0005704 -0.0015676 -0.0000028 -0.0011233 -0.0005489 -0.0013024 0.0002233 0.0000518 0.0000808 -0.0013547 -0.0005575 -0.0011730 -0.0004869 -0.0027638
-0.0002618 -0.0011499 -0.0001905 -0.0004786 -0.0003747 -0.0016541 -0.0003360 -0.0007515 -0.0008664 0.0028190 -0.0003779 -0.0003226 -0.0001750 0.0010097 0.0004500 0.0003494 0.0000911 -0.0007628 0.0000357 -0.0007968 -0.0000677 0.0004207 -0.0007089 -0.0020819 -0.0004918 -0.0010124 -0.0006128 -0.0017977 0.0000244 -0.0013834 -0.0005548 -0.0015415 0.0002145 0.0000480 0.0001464 -0.0013286 -0.0005735 -0.0013580 -0.0005135 -0.0029050
-0.0002739 -0.0012168 -0.0002596 -0.0005293 -0.0003798 -0.0017005 -0.0003338 -0.0008226 -0.0034348 0.0045668 -0.0003736 -0.0003317 -0.0002781 0.0009399 0.0004631 0.0003175 -0.0000467 -0.0005649 0.0000514 -0.0007713 -0.0000891 0.0003743 -0.0007483 -0.0020219 -0.0004633 -0.0008766 -0.0005919 -0.0016854 0.0000913 -0.0011526 -0.0005341 -0.0014250 0.0002203 0.0001031 0.0002080 -0.0010083 -0.0005544 -0.0011878 -0.0004747 -0.0026172
-0.0002172 -0.0010729 -0.0001936 -0.0004150 -0.0003259 -0.0014671 -0.0003154 -0.0006827 -0.0011899 0.0014872 -0.0003722 -0.0002426 -0.0000314 0.0006378 0.0005137 0.0002204 -0.0000255 -0.0005685 0.0000612 -0.0006642 -0.0001234 0.0003578 -0.0007008 -0.0017088 -0.0004288 -0.0005978 -0.0005697 -0.0015562 0.0001196 -0.0008323 -0.0004238 -0.0008802 0.0002419 0.0001082 0.0001912 -0.0009019 -0.0005121 -0.0009570 -0.0003236 -0.0018332
-0.0001846 -0.0009320 -0.0001478 -0.0002455 -0.0001965 -0.0009347 -0.0002869 -0.0004780 0.0009248 -0.0002952 -0.0003719 -0.0001064 -0.0001237 0.0009311 0.0004693 0.0001833 0.0000850 -0.0005919 0.0001127 -0.0005669 -0.0001381 0.0004013 -0.0005460 -0.0014084 -0.0003960 -0.0003257 -0.0005769 -0.0014820 0.0000910 -0.0006744 -0.0002998 -0.0003247 0.0002647 0.0000750 0.0001618 -0.0010784 -0.0004769 -0.0009566 -0.0002054 -0.0014314
-0.0001938 -0.0009397 -0.0001720 -0.0002493 -0.0001352 -0.0008150 -0.0002686 -0.0005415 -0.0001928 0.0010104 -0.0003679 -0.0002121 -0.0001718 0.0012525 0.0003629 0.0000642 0.0000307 -0.0005228 0.0001169 -0.0008460 -0.0000808 0.0004715 -0.0005138 -0.0014980 -0.0003946 -0.0005171 -0.0006471 -0.0017020 0.0000705 -0.0011586 -0.0003207 -0.0006127 0.0002601 -0.0000366 0.0001536 -0.0016880 -0.0004932 -0.0013799 -0.0002524 -0.0019762
-0.0002526 -0.0012176 -0.0002234 -0.0005758 -0.0002115 -0.0013696 -0.0002766 -0.0009085 0.0006314 -0.0002141 -0.0003643 -0.0005407 -0.0000193 0.0010556 0.0002963 -0.0000749 0.0000409 -0.0008063 0.0001142 -0.0012068 -0.0000122 0.0004677 -0.0005797 -0.0019034 -0.0003988 -0.0009041 -0.0006832 -0.0020512 0.0000998 -0.0016892 -0.0003721 -0.0010945 0.0002525 -0.0001271 0.0002221 -0.0019322 -0.0005045 -0.0016762 -0.0002826 -0.0023086
-0.0002981 -0.0014052 -0.0002377 -0.0008116 -0.0002209 -0.0015956 -0.0002713 -0.0010701 -0.0001667 0.0002161 -0.0003620 -0.0006507 -0.0001133 0.0007146 0.0003758 -0.0002061 0.0001525 -0.0010013 0.0001862 -0.0012437 -0.0000100 0.0004348 -0.0005939 -0.0020109 -0.0003691 -0.0009005 -0.0006665 -0.0020147 0.0001104 -0.0014784 -0.0003673 -0.0010816 0.0002646 -0.0001166 0.0003194 -0.0016037 -0.0004793 -0.0015440 -0.0002411 -0.0020853
-0.0002645 -0.0013021 -0.0002018 -0.0006914 -0.0001566 -0.0014053 -0.0002398 -0.0009358 0.0005037 -0.0000923 -0.0003575 -0.0005533 -0.0001024 0.0004328 0.0004189 -0.0002010 0.0000898 -0.0007253 0.0002050 -0.0010751 -0.0000396 0.0004548 -0.0005514 -0.0018157 -0.0003320 -0.0006727 -0.0006374 -0.0017887 0.0001610 -0.0011045 -0.0003494 -0.0008655 0.0002869 -0.0000873 0.0003659 -0.0013505 -0.0004462 -0.0012699 -0.0001977 -0.0017455
-0.0002291 -0.0010772 -0.0001606 -0.0004350 -0.0001157 -0.0011256 -0.0002108 -0.0006890 0.0014512 0.0002889 -0.0003526 -0.0004035 -0.0001811 0.0007219 0.0002852 0.0000382 0.0000334 -0.0006112 0.0001720 -0.0008242 -0.0000754 0.0005239 -0.0005050 -0.0014576 -0.0003059 -0.0003555 -0.0005999 -0.0015254 0.0001983 -0.0007559 -0.0003101 -0.0005247 0.0003104 -0.0000535 0.0003875 -0.0011428 -0.0004144 -0.0009394 -0.0001456 -0.0013006
-0.0001933 -0.0007940 -0.0001022 -0.0002106 -0.0000947 -0.0007663 -0.0001978 -0.0003948 0.0001428 0.0021394 -0.0003537 -0.0001961 -0.0001857 0.0010634 0.0002615 0.0001659 0.0000524 -0.0005766 0.0001272 -0.0005699 -0.0001110 0.0006437 -0.0004609 -0.0010347 -0.0002902 -0.0000098 -0.0005971 -0.0012361 0.0001660 -0.0004244 -0.0002675 -0.0001660 0.0003263 0.0000097 0.0003783 -0.0010941 -0.0003912 -0.0007785 -0.0001332 -0.0012017
-0.0001206 -0.0006178 -0.0000511 -0.0000828 -0.0001045 -0.0007336 -0.0002118 -0.0004092 -0.0003263 0.0018041 -0.0003620 -0.0002094 -0.0002643 0.0007960 0.0003391 0.0000826 -0.0000349 -0.0004766 0.0000985 -0.0007579 -0.0000823 0.0006853 -0.0004565 -0.0010366 -0.0003038 -0.0001553 -0.0006270 -0.0014311 0.0001498 -0.0009368 -0.0002877 -0.0004011 0.0003051 -0.0000334 0.0003041 -0.0016515 -0.0004172 -0.0011379 -0.0002285 -0.0018058
-0.0001089 -0.0008936 -0.0000843 -0.0003243 -0.0001722 -0.0012539 -0.0002549 -0.0008216 0.0008307 0.0002271 -0.0003682 -0.0005387 -0.0003553 0.0005683 0.0004181 -0.0001686 -0.0000227 -0.0007631 0.0001295 -0.0012885 -0.0000186 0.0006189 -0.0005782 -0.0015405 -0.0003308 -0.0006684 -0.0006660 -0.0018909 0.0001344 -0.0016535 -0.0003335 -0.0009671 0.0002652 -0.0001060 0.0002834 -0.0020305 -0.0004551 -0.0015569 -0.0003095 -0.0022848
-0.0001387 -0.0012377 -0.0001404 -0.0006043 -0.0002079 -0.0016127 -0.0002848 -0.0010951 0.0022283 -0.0014015 -0.0003693 -0.0006901 -0.0000197 0.0003688 0.0005089 -0.0002238 0.0000411 -0.0009367 0.0001514 -0.0013398 -0.0000177 0.0005596 -0.0006754 -0.0017671 -0.0003337 -0.0007890 -0.0006531 -0.0019119 0.0001557 -0.0015638 -0.0003453 -0.0010903 0.0002479 -0.0000334 0.0003252 -0.0016641 -0.0004447 -0.0014968 -0.0003175 -0.0022389
-0.0001058 -0.0011359 -0.0001047 -0.0005302 -0.0001841 -0.0015078 -0.0002930 -0.0010745 0.0014611 -0.0009221 -0.0003691 -0.0005810 0.0000175 0.0001964 0.0003605 0.0001221 -0.0000165 -0.0008513 0.0001649 -0.0011646 -0.0000528 0.0005156 -0.0006067 -0.0015647 -0.0003178 -0.0005898 -0.0005955 -0.0016420 0.0001820 -0.0011738 -0.0003387 -0.0009375 0.0002455 0.0000416 0.0003334 -0.0012826 -0.0004040 -0.0011950 -0.0002838 -0.0018777
-0.0000716 -0.0009185 -0.0000504 -0.0003869 -0.0001298 -0.0012221 -0.0002871 -0.0008862 0.0008274 -0.0008132 -0.0003615 -0.0004087 -0.0000310 0.0002981 0.0001942 0.0004963 -0.0000811 -0.0008276 0.0001716 -0.0009000 -0.0000865 0.0005450 -0.0005394 -0.0011726 -0.0003068 -0.0003178 -0.0005242 -0.0012459 0.0001896 -0.0006858 -0.0003368 -0.0007285 0.0002443 0.0001083 0.0003333 -0.0009783 -0.0003631 -0.0008145 -0.0002370 -0.0013808
-0.0000870 -0.0006714 -0.0000584 -0.0001777 -0.0000769 -0.0008428 -0.0002735 -0.0005901 0.0012495 -0.0010666 -0.0003607 -0.0001775 0.0002153 0.0001638 0.0003331 0.0004397 -0.0000771 -0.0006389 0.0001230 -0.0004867 -0.0001201 0.0006401 -0.0005220 -0.0006945 -0.0003152 -0.0000423 -0.0004720 -0.0009045 0.0002067 -0.0003158 -0.0003411 -0.0005180 0.0002331 0.0002182 0.0003046 -0.0008332 -0.0003356 -0.0006233 -0.0002482 -0.0012927
-0.0000862 -0.0005304 -0.0000475 -0.0001235 -0.0000896 -0.0007918 -0.0002922 -0.0006106 -0.0005976 0.0012351 -0.0003694 -0.0001444 -0.0000272 0.0004856 0.0003836 0.0002849 -0.0000035 -0.0007108 0.0001567 -0.0005820 -0.0000994 0.0006508 -0.0004913 -0.0007212 -0.0003649 -0.0002742 -0.0004759 -0.0010734 0.0002028 -0.0007425 -0.0003772 -0.0007702 0.0002074 0.0001515 0.0001841 -0.0013747 -0.0003683 -0.0010090 -0.0003628 -0.0018245
-0.0001285 -0.0008542 -0.0000567 -0.0004618 -0.0001544 -0.0012531 -0.0003290 -0.0009941 -0.0015500 0.0016961 -0.0003745 -0.0004074 -0.0004808 0.0009640 0.0003721 0.0001771 0.0000248 -0.0008340 0.0002211 -0.0009574 -0.0000471 0.0005917 -0.0005394 -0.0012145 -0.0004179 -0.0007979 -0.0005268 -0.0014912 0.0002011 -0.0013576 -0.0004328 -0.0012911 0.0001813 0.0000378 0.0001405 -0.0017733 -0.0004227 -0.0014465 -0.0004761 -0.0022480
-0.0001833 -0.0012235 -0.0001563 -0.0007259 -0.0001857 -0.0015664 -0.0003434 -0.0011929 0.0007442 -0.0011965 -0.0003694 -0.0005350 -0.0003264 0.0007343 0.0005075 0.0000892 0.0000231 -0.0007328 0.0001945 -0.0008847 -0.0000573 0.0005501 -0.0006289 -0.0014037 -0.0004178 -0.0008762 -0.0005281 -0.0014959 0.0002622 -0.0012777 -0.0004428 -0.0013744 0.0001878 0.0000910 0.0002156 -0.0013917 -0.0004049 -0.0013289 -0.0004581 -0.0020921
-0.0001809 -0.0011502 -0.0002065 -0.0006414 -0.0001528 -0.0014056 -0.0003217 -0.0010450 0.0007337 -0.0000405 -0.0003653 -0.0003993 -0.0002041 0.0007582 0.0004665 0.0002589 -0.0000150 -0.0007311 0.0001861 -0.0006874 -0.0000987 0.0005324 -0.0006271 -0.0012627 -0.0003880 -0.0006319 -0.0004959 -0.0012789 0.0002615 -0.0009542 -0.0004261 -0.0011705 0.0002071 0.0001514 0.0002509 -0.0010426 -0.0003738 -0.0010157 -0.0004108 -0.0017319
-0.0001426 -0.0009143 -0.0001272 -0.0004122 -0.0001196 -0.0011252 -0.0002951 -0.0007964 0.0001459 0.0027898 -0.0003682 -0.0002218 -0.0001747 0.0007225 0.0004645 0.0003012 -0.0000838 -0.0004937 0.0001909 -0.0005298 -0.0001330 0.0005834 -0.0006332 -0.0009562 -0.0003562 -0.0002739 -0.0005207 -0.0010072 0.0001890 -0.0005116 -0.0004082 -0.0008916 0.0002246 0.0002024 0.0002575 -0.0008190 -0.0003632 -0.0007647 -0.0003889 -0.0013962
-0.0000798 -0.0006388 -0.0000641 -0.0001793 -0.0001237 -0.0009719 -0.0002757 -0.0006469 -0.0000514 0.0037543 -0.0003647 -0.0002001 -0.0002230 0.0008407 0.0004808 -0.0000691 -0.0000737 -0.0005424 0.0001473 -0.0006749 -0.0001439 0.0005370 -0.0005920 -0.0008663 -0.0003261 -0.0001893 -0.0005642 -0.0010657 0.0001454 -0.0008003 -0.0003806 -0.0009088 0.0002326 0.0000631 0.0002407 -0.0013169 -0.0003885 -0.0010530 -0.0004048 -0.0016453
-0.0000620 -0.0007614 -0.0000054 -0.0003491 -0.0001871 -0.0013450 -0.0002748 -0.0008890 0.0006548 0.0013684 -0.0003705 -0.0004899 -0.0001277 0.0005931 0.0005649 -0.0003956 0.0000623 -0.0008591 0.0001386 -0.0011452 -0.0001138 0.0003867 -0.0006476 -0.0013217 -0.0003093 -0.0004903 -0.0006483 -0.0015865 0.0001292 -0.0016473 -0.0003702 -0.0012614 0.0002196 -0.0001825 0.0002526 -0.0019970 -0.0004548 -0.0016784 -0.0004515 -0.0021531
-0.0000710 -0.0010989 -0.0000228 -0.0005589 -0.0002397 -0.0018204 -0.0002857 -0.0012397 0.0015273 -0.0001391 -0.0003722 -0.0007290 -0.0001265 0.0000765 0.0005392 -0.0002535 0.0003058 -0.0009851 0.0002078 -0.0013497 -0.0001079 0.0002469 -0.0007331 -0.0017547 -0.0002901 -0.0006191 -0.0006962 -0.0018075 0.0001721 -0.0017792 -0.0003597 -0.0013525 0.0002241 -0.0002579 0.0003310 -0.0017792 -0.0004655 -0.0017936 -0.0004523 -0.0021209
-0.0000409 -0.0010840 -0.0000532 -0.0004691 -0.0002059 -0.0017508 -0.0002696 -0.0012256 0.0009406 0.0013373 -0.0003670 -0.0006673 -0.0003724 0.0004642 0.0002873 0.0001087 0.0002098 -0.0007482 0.0002155 -0.0012159 -0.0001436 0.0001750 -0.0006759 -0.0017092 -0.0002581 -0.0004232 -0.0006692 -0.0016125 0.0002029 -0.0014151 -0.0003416 -0.0011486 0.0002388 -0.0002310 0.0003852 -0.0013654 -0.0004274 -0.0015221 -0.0004231 -0.0018000
0.0000266 -0.0008922 0.0000438 -0.0002889 -0.0001467 -0.0014555 -0.0002489 -0.0010344 0.0002499 0.0013629 -0.0003670 -0.0005100 -0.0003589 0.0006392 0.0002892 0.0002328 -0.0000164 -0.0005277 0.0001381 -0.0009521 -0.0001788 0.0002084 -0.0006086 -0.0014012 -0.0002368 -0.0001300 -0.0006316 -0.0013581 0.0002352 -0.0010458 -0.0003297 -0.0008898 0.0002386 -0.0001746 0.0003671 -0.0011423 -0.0003983 -0.0011713 -0.0004011 -0.0014132
0.0000462 -0.0005814 0.0000777 0.0000129 -0.0001084 -0.0011093 -0.0002337 -0.0007643 0.0006284 0.0004110 -0.0003688 -0.0003079 -0.0003800 0.0005798 0.0001903 0.0003365 -0.0000845 -0.0004266 0.0000540 -0.0006548 -0.0002135 0.0002462 -0.0005560 -0.0010671 -0.0002226 0.0001302 -0.0006019 -0.0011594 0.0002275 -0.0009138 -0.0002986 -0.0006681 0.0002432 -0.0001526 0.0003443 -0.0012116 -0.0003687 -0.0010774 -0.0003940 -0.0014106
0.0000539 -0.0005079 0.0000916 0.0000246 -0.0001103 -0.0011156 -0.0002299 -0.0007917 0.0021554 -0.0014493 -0.0003641 -0.0003739 0.0000201 0.0000548 0.0001307 0.0002385 -0.0000765 -0.0005973 0.0000798 -0.0009724 -0.0001875 0.0002388 -0.0005703 -0.0011302 -0.0002298 -0.0000525 -0.0006412 -0.0013882 0.0001907 -0.0014477 -0.0002963 -0.0008991 0.0002310 -0.0002538 0.0003026 -0.0018212 -0.0003907 -0.0014947 -0.0004534 -0.0019425
0.0000208 -0.0008823 0.0001009 -0.0003533 -0.0001520 -0.0015853 -0.0002479 -0.0011884 0.0032070 -0.0016726 -0.0003611 -0.0006862 0.0004167 -0.0001156 0.0003068 -0.0001252 0.0000418 -0.0009689 0.0001528 -0.0014650 -0.0001297 0.0001933 -0.0006462 -0.0016035 -0.0002469 -0.0004320 -0.0006963 -0.0017679 0.0001596 -0.0018960 -0.0003257 -0.0012825 0.0002268 -0.0003279 0.0003124 -0.0020227 -0.0004215 -0.0018056 -0.0005121 -0.0022447
-0.0000269 -0.0011430 0.0000239 -0.0005659 -0.0001514 -0.0017815 -0.0002510 -0.0013484 0.0030987 -0.0019149 -0.0003557 -0.0007771 0.0000459 0.0003440 0.0003589 -0.0000945 0.0000952 -0.0009388 0.0001409 -0.0013137 -0.0001319 0.0001294 -0.0007155 -0.0017062 -0.0002394 -0.0004498 -0.0006831 -0.0017400 0.0001664 -0.0016462 -0.0003265 -0.0012644 0.0002496 -0.0003044 0.0003766 -0.0015749 -0.0003952 -0.0016435 -0.0004915 -0.0020175
-0.0000138 -0.0010202 0.0000237 -0.0004404 -0.0000963 -0.0015935 -0.0002305 -0.0012138 0.0007975 0.0000354 -0.0003441 -0.0006619 -0.0003137 0.0005612 0.0003208 0.0001008 0.0001187 -0.0007270 0.0001832 -0.0010868 -0.0001595 0.0001187 -0.0006504 -0.0014488 -0.0002259 -0.0002380 -0.0006092 -0.0014970 0.0002338 -0.0012712 -0.0003133 -0.0010679 0.0002582 -0.0002407 0.0003799 -0.0012299 -0.0003521 -0.0012873 -0.0004442 -0.0015770
0.0000095 -0.0008224 0.0000376 -0.0002103 -0.0000597 -0.0013027 -0.0002224 -0.0009859 0.0001700 0.0015332 -0.0003451 -0.0004689 -0.0001812 0.0005883 0.0003225 0.0000604 0.0001064 -0.0006238 0.0002401 -0.0009329 -0.0001804 0.0001404 -0.0005650 -0.0012047 -0.0002305 -0.0000846 -0.0005657 -0.0013110 0.0002643 -0.0011722 -0.0003008 -0.0009300 0.0002553 -0.0002065 0.0003445 -0.0012964 -0.0003285 -0.0012069 -0.0004313 -0.0015652
0.0000216 -0.0008487 0.0000125 -0.0002280 -0.0000623 -0.0013667 -0.0002379 -0.0010829 -0.0000051 0.0026923 -0.0003564 -0.0005372 -0.0001940 0.0006703 0.0002884 -0.0000811 0.0000809 -0.0008159 0.0002318 -0.0011397 -0.0001444 0.0001273 -0.0005592 -0.0013891 -0.0002579 -0.0003380 -0.0006145 -0.0015526 0.0002284 -0.0016273 -0.0003179 -0.0011862 0.0002429 -0.0002674 0.0002927 -0.0017882 -0.0003580 -0.0015966 -0.0004928 -0.0021311
-0.0000073 -0.0011675 0.0000254 -0.0005863 -0.0001094 -0.0018532 -0.0002666 -0.0015104 0.0001881 0.0028057 -0.0003597 -0.0008050 -0.0001829 0.0006499 0.0003272 0.0000411 0.0001487 -0.0010025 0.0002694 -0.0013900 -0.0000998 0.0000943 -0.0006833 -0.0018098 -0.0002833 -0.0006565 -0.0006465 -0.0018842 0.0002044 -0.0018915 -0.0003485 -0.0014847 0.0002456 -0.0002686 0.0003016 -0.0017571 -0.0003844 -0.0017741 -0.0005442 -0.0024057
-0.0000271 -0.0013194 0.0000064 -0.0007215 -0.0001302 -0.0019774 -0.0002765 -0.0016363 -0.0004961 0.0027153 -0.0003555 -0.0008094 -0.0000834 0.0003818 0.0004068 0.0001011 0.0001040 -0.0008502 0.0002991 -0.0011942 -0.0001128 0.0000717 -0.0007610 -0.0018136 -0.0002811 -0.0005985 -0.0006015 -0.0018462 0.0002356 -0.0016594 -0.0003522 -0.0013940 0.0002602 -0.0001907 0.0003301 -0.0012620 -0.0003652 -0.0015305 -0.0005307 -0.0022080
-0.0000014 -0.0011605 0.0000551 -0.0005444 -0.0000832 -0.0017342 -0.0002591 -0.0014540 -0.0017036 0.0020304 -0.0003586 -0.0006337 -0.0001422 0.0004066 0.0003940 0.0001617 -0.0000199 -0.0006763 0.0002624 -0.0009205 -0.0001437 0.0001034 -0.0006678 -0.0015454 -0.0002690 -0.0003611 -0.0005397 -0.0015987 0.0002833 -0.0012852 -0.0003486 -0.0011481 0.0002650 -0.0001035 0.0003287 -0.0009237 -0.0003360 -0.0011503 -0.0004871 -0.0018315
0.0000218 -0.0009084 0.0000690 -0.0002575 -0.0000486 -0.0014134 -0.0002465 -0.0011809 0.0017676 -0.0018312 -0.0003597 -0.0004193 -0.0000831 0.0003457 0.0003134 0.0004325 -0.0000167 -0.0006831 0.0002026 -0.0005750 -0.0001776 0.0002016 -0.0005644 -0.0011903 -0.0002722 -0.0000704 -0.0004874 -0.0012283 0.0003010 -0.0007817 -0.0003454 -0.0008437 0.0002593 0.0000060 0.0002937 -0.0006307 -0.0003112 -0.0006906 -0.0004463 -0.0013680
0.0000410 -0.0005857 0.0000525 0.0000263 -0.0000294 -0.0010264 -0.0002418 -0.0008385 0.0028652 -0.0011238 -0.0003674 -0.0001953 -0.0002384 0.0006239 0.0002556 0.0003762 0.0000450 -0.0008295 0.0001908 -0.0003480 -0.0002037 0.0002472 -0.0005477 -0.0008319 -0.0002888 0.0000838 -0.0004693 -0.0009948 0.0002378 -0.0007007 -0.0003308 -0.0006699 0.0002533 0.0000456 0.0002420 -0.0007457 -0.0003023 -0.0006274 -0.0004356 -0.0014260
0.0000339 -0.0005783 0.0000556 -0.0000735 -0.0000626 -0.0011610 -0.0002558 -0.0009348 0.0011967 0.0022803 -0.0003762 -0.0003102 -0.0001173 0.0007279 0.0003415 0.0000215 0.0000313 -0.0009409 0.0002258 -0.0007056 -0.0001497 0.0002586 -0.0005764 -0.0010592 -0.0003267 -0.0002321 -0.0004905 -0.0013406 0.0002022 -0.0013813 -0.0003642 -0.0010205 0.0002581 -0.0000122 0.0001954 -0.0013454 -0.0003585 -0.0011337 -0.0005114 -0.0021130
-0.0000159 -0.0010466 0.0000194 -0.0004836 -0.0001420 -0.0018243 -0.0002920 -0.0014238 0.0000920 0.0032096 -0.0003724 -0.0006500 0.0000198 0.0005512 0.0005069 -0.0000424 0.0000758 -0.0009332 0.0002967 -0.0010705 -0.0000826 0.0002596 -0.0006552 -0.0016401 -0.0003650 -0.0006385 -0.0005240 -0.0017439 0.0002083 -0.0018211 -0.0004214 -0.0014318 0.0002790 -0.0000079 0.0002052 -0.0013712 -0.0004186 -0.0014225 -0.0005814 -0.0024326
-0.0000433 -0.0012998 -0.0000003 -0.0006843 -0.0001607 -0.0020412 -0.0003033 -0.0015475 -0.0018164 0.0023882 -0.0003705 -0.0006988 -0.0001604 0.0005246 0.0004060 0.0002516 0.0001445 -0.0009071 0.0003200 -0.0009144 -0.0000952 0.0002234 -0.0007683 -0.0016870 -0.0003730 -0.0006193 -0.0005315 -0.0016671 0.0001838 -0.0014894 -0.0004264 -0.0013492 0.0003055 0.0000870 0.0002245 -0.0008324 -0.0004170 -0.0012238 -0.0005615 -0.0021843
-0.0000276 -0.0011205 -0.0000256 -0.0005063 -0.0001332 -0.0018035 -0.0002868 -0.0013463 -0.0013392 0.0020108 -0.0003780 -0.0005377 -0.0003194 0.0004690 0.0002078 0.0004602 -0.0000617 -0.0006323 0.0002840 -0.0007356 -0.0001297 0.0002442 -0.0007169 -0.0014485 -0.0003733 -0.0003909 -0.0005195 -0.0014139 0.0001655 -0.0010518 -0.0004139 -0.0010703 0.0003160 0.0001671 0.0001854 -0.0005606 -0.0004021 -0.0008797 -0.0005141 -0.0018609
0.0000297 -0.0008574 0.0000025 -0.0002460 -0.0000930 -0.0014844 -0.0002548 -0.0010342 0.0018344 -0.0015013 -0.0003771 -0.0003485 -0.0001460 0.0002712 0.0002046 0.0004753 -0.0002106 -0.0003890 0.0001996 -0.0005390 -0.0001691 0.0003179 -0.0006853 -0.0010325 -0.0003676 -0.0000872 -0.0004974 -0.0011011 0.0001521 -0.0006426 -0.0004033 -0.0007322 0.0003053 0.0001755 0.0001694 -0.0004220 -0.0003899 -0.0004854 -0.0004549 -0.0014564
0.0000752 -0.0005644 0.0000451 -0.0000408 -0.0000741 -0.0011197 -0.0002141 -0.0006425 0.0021898 -0.0033054 -0.0003706 -0.0001794 -0.0001778 0.0004057 0.0002745 0.0001663 -0.0001087 -0.0005445 0.0001673 -0.0005036 -0.0002101 0.0002893 -0.0006470 -0.0007173 -0.0003790 -0.0000054 -0.0004942 -0.0010188 0.0001343 -0.0007391 -0.0003865 -0.0005677 0.0002870 -0.0000105 0.0001528 -0.0006838 -0.0003939 -0.0004907 -0.0004345 -0.0015480
0.0000752 -0.0006257 0.0001128 -0.0001737 -0.0001454 -0.0013575 -0.0001986 -0.0006887 0.0009423 0.0003656 -0.0003713 -0.0003386 -0.0002479 0.0002316 0.0002782 0.0000054 -0.0000545 -0.0007145 0.0001784 -0.0008945 -0.0001825 0.0002166 -0.0006111 -0.0011350 -0.0004213 -0.0004075 -0.0006359 -0.0015292 0.0000423 -0.0014265 -0.0004050 -0.0008687 0.0002642 -0.0003451 0.0001733 -0.0012828 -0.0004544 -0.0010358 -0.0005037 -0.0023012
0.0000588 -0.0010847 0.0001172 -0.0005357 -0.0002657 -0.0020403 -0.0001902 -0.0010265 -0.0000449 0.0027960 -0.0003515 -0.0006355 -0.0002937 -0.0000366 0.0002387 -0.0000965 -0.0000323 -0.0006169 0.0002011 -0.0012459 -0.0001448 0.0001878 -0.0006776 -0.0017132 -0.0004636 -0.0008158 -0.0008052 -0.0019965 -0.0000247 -0.0016438 -0.0004594 -0.0011699 0.0002310 -0.0007297 0.0003460 -0.0010797 -0.0004843 -0.0012122 -0.0005143 -0.0024773
-0.0000279 -0.0013790 0.0000194 -0.0008159 -0.0002831 -0.0021563 -0.0001446 -0.0009001 -0.0010454 0.0025507 -0.0002882 -0.0005516 -0.0005663 0.0002895 0.0002919 -0.0002770 0.0000404 -0.0004395 0.0002839 -0.0010146 -0.0001645 0.0002316 -0.0006744 -0.0016356 -0.0005048 -0.0009232 -0.0008145 -0.0017870 0.0000141 -0.0012332 -0.0005059 -0.0011270 0.0002290 -0.0009653 0.0005388 -0.0002866 -0.0004137 -0.0007675 -0.0004110 -0.0018988
-0.0001850 -0.0013651 -0.0000942 -0.0009182 -0.0001792 -0.0017098 -0.0000708 -0.0004211 0.0003898 0.0004806 -0.0002125 -0.0002712 -0.0001062 -0.0001492 0.0003682 -0.0002952 0.0000026 -0.0002739 0.0003043 -0.0004367 -0.0001740 0.0004072 -0.0006079 -0.0012206 -0.0005048 -0.0007395 -0.0007283 -0.0012826 0.0000869 -0.0006764 -0.0005307 -0.0009000 0.0002782 -0.0007978 0.0005839 0.0001985 -0.0003604 -0.0003197 -0.0003318 -0.0014016
-0.0002098 -0.0011069 -0.0000863 -0.0006875 -0.0000901 -0.0012181 -0.0000258 -0.0000156 0.0003717 0.0014555 -0.0001856 -0.0000256 0.0000460 0.0000958 0.0003954 -0.0000068 -0.0001042 -0.0000690 0.0002941 -0.0000269 -0.0001699 0.0006091 -0.0005194 -0.0008522 -0.0004619 -0.0002977 -0.0006425 -0.0007981 0.0000761 -0.0001345 -0.0005203 -0.0005599 0.0003243 -0.0003566 0.0005175 0.0003283 -0.0003735 -0.0000303 -0.0003138 -0.0012163
-0.0000794 -0.0006158 0.0000118 -0.0001829 -0.0000826 -0.0008920 -0.0000364 0.0001880 -0.0007761 0.0022956 -0.0002160 0.0000745 -0.0004262 0.0010235 0.0004141 0.0003567 -0.0001189 -0.0001878 0.0002701 -0.0000809 -0.0001498 0.0006975 -0.0005142 -0.0006670 -0.0004203 0.0000056 -0.0006161 -0.0007292 -0.0000587 -0.0002463 -0.0004964 -0.0004491 0.0003472 -0.0000680 0.0003807 -0.0002286 -0.0004270 -0.0002412 -0.0003773 -0.0017263
-0.0000237 -0.0005935 0.0000572 -0.0001099 -0.0001523 -0.0012228 -0.0000755 -0.0001147 -0.0004176 0.0015677 -0.0002561 -0.0002339 -0.0004508 0.0010032 0.0004559 0.0001965 -0.0000153 -0.0004647 0.0002365 -0.0006251 -0.0000876 0.0006134 -0.0006238 -0.0010110 -0.0004191 -0.0002658 -0.0006680 -0.0011911 -0.0001009 -0.0011027 -0.0005087 -0.0008229 0.0003729 -0.0000884 0.0002732 -0.0010092 -0.0005018 -0.0009074 -0.0004648 -0.0026251
-0.0000302 -0.0010602 0.0000274 -0.0005099 -0.0002354 -0.0019261 -0.0001112 -0.0006842 -0.0008523 0.0011395 -0.0002722 -0.0006527 -0.0003673 0.0007526 0.0004995 0.0000250 0.0001105 -0.0004445 0.0002281 -0.0010186 -0.0000287 0.0004948 -0.0007035 -0.0016442 -0.0004263 -0.0006143 -0.0006984 -0.0015874 -0.0000743 -0.0015395 -0.0005344 -0.0011534 0.0003988 -0.0000648 0.0002860 -0.0009265 -0.0005451 -0.0012312 -0.0004994 -0.0029746
-0.0000052 -0.0011607 0.0000181 -0.0005916 -0.0002550 -0.0020796 -0.0001209 -0.0008601 0.0004070 0.0004824 -0.0002641 -0.0007141 -0.0004665 0.0006800 0.0004617 0.0002798 -0.0000060 -0.0001773 0.0001614 -0.0009163 -0.0000244 0.0004295 -0.0007319 -0.0018337 -0.0004091 -0.0005301 -0.0006844 -0.0015415 -0.0000817 -0.0012849 -0.0005394 -0.0010708 0.0004062 0.0000920 0.0003332 -0.0003841 -0.0005379 -0.0010628 -0.0004828 -0.0028509
0.0000082 -0.0009573 0.0000579 -0.0004020 -0.0002285 -0.0018175 -0.0001019 -0.0007052 0.0009059 0.0026028 -0.0002482 -0.0005651 -0.0001046 0.0004441 0.0004847 0.0004032 0.0000738 -0.0001792 0.0001299 -0.0006980 -0.0000546 0.0004200 -0.0007460 -0.0015999 -0.0003965 -0.0002922 -0.0006615 -0.0012897 -0.0000583 -0.0008580 -0.0005376 -0.0008418 0.0003998 0.0001874 0.0003372 0.0000201 -0.0005170 -0.0007236 -0.0004343 -0.0025143
0.0000143 -0.0006986 0.0000674 -0.0001567 -0.0002018 -0.0014431 -0.0000830 -0.0004384 -0.0007692 0.0032697 -0.0002397 -0.0003572 -0.0000413 0.0007321 0.0005167 0.0004695 0.0002622 -0.0003728 0.0002146 -0.0005382 -0.0000890 0.0004885 -0.0006926 -0.0012363 -0.0003951 -0.0000090 -0.0006464 -0.0009784 -0.0000538 -0.0003567 -0.0005421 -0.0005572 0.0003910 0.0002819 0.0003308 0.0002829 -0.0005044 -0.0003599 -0.0003991 -0.0021412
0.0000178 -0.0004222 0.0000662 0.0001025 -0.0001887 -0.0010410 -0.0000766 -0.0001324 -0.0006962 0.0033443 -0.0002328 -0.0001246 0.0000644 0.0009418 0.0004329 0.0007033 0.0001861 -0.0001774 0.0001748 -0.0001417 -0.0001092 0.0006398 -0.0006259 -0.0008332 -0.0004096 0.0002826 -0.0006654 -0.0006349 -0.0001171 0.0001810 -0.0005623 -0.0002681 0.0003814 0.0004417 0.0002788 0.0005016 -0.0005053 -0.0000320 -0.0003965 -0.0018838
0.0000090 -0.0001632 0.0000917 0.0002837 -0.0002112 -0.0008252 -0.0000910 0.0000155 -0.0012139 0.0038386 -0.0002442 -0.0000590 0.0002365 0.0007608 0.0004798 0.0007470 0.0001864 -0.0000092 0.0001330 -0.0000320 -0.0000845 0.0006903 -0.0005942 -0.0007487 -0.0004530 0.0001731 -0.0007018 -0.0007396 -0.0002058 -0.0000845 -0.0005956 -0.0003889 0.0003875 0.0003364 0.0001535 -0.0000893 -0.0005475 -0.0003200 -0.0004408 -0.0023583
-0.0000478 -0.0004130 0.0000923 -0.0000112 -0.0002822 -0.0012249 -0.0001268 -0.0003147 -0.0006487 0.0018214 -0.0002657 -0.0004140 -0.0000945 0.0008086 0.0005743 0.0005712 0.0001803 -0.0000795 0.0001576 -0.0005641 -0.0000267 0.0005310 -0.0006378 -0.0012158 -0.0005007 -0.0003555 -0.0007589 -0.0012216 -0.0002604 -0.0009348 -0.0006214 -0.0008568 0.0004029 0.0000923 0.0001266 -0.0009020 -0.0005938 -0.0009338 -0.0004825 -0.0030834
-0.0000985 -0.0008893 0.0000099 -0.0004492 -0.0003352 -0.0017036 -0.0001400 -0.0006947 0.0007537 0.0018652 -0.0002636 -0.0007340 -0.0000450 0.0006309 0.0005069 0.0003219 0.0000397 -0.0001004 0.0001058 -0.0008015 0.0000029 0.0003954 -0.0007521 -0.0015828 -0.0005087 -0.0005994 -0.0007837 -0.0013644 -0.0003046 -0.0009694 -0.0006377 -0.0010090 0.0003983 0.0000277 0.0002322 -0.0006250 -0.0005658 -0.0009394 -0.0004274 -0.0030067
-0.0001624 -0.0009895 -0.0000614 -0.0005802 -0.0003073 -0.0016083 -0.0001057 -0.0005504 0.0002419 0.0039593 -0.0002222 -0.0005804 0.0000973 0.0002393 0.0002432 0.0002249 -0.0002646 0.0001861 0.0001031 -0.0003866 -0.0000225 0.0004045 -0.0007098 -0.0013504 -0.0005592 -0.0007020 -0.0008122 -0.0011393 -0.0002720 -0.0003791 -0.0006844 -0.0008990 0.0003380 -0.0003294 0.0003976 0.0000895 -0.0004962 -0.0005038 -0.0003091 -0.0023505
-0.0002656 -0.0010008 -0.0001080 -0.0007046 -0.0002510 -0.0012395 -0.0000538 -0.0001125 0.0001764 0.0026577 -0.0001689 -0.0003001 -0.0002460 0.0004726 0.0002220 0.0002211 -0.0002551 0.0002796 0.0001466 0.0001906 -0.0000558 0.0005198 -0.0006329 -0.0009101 -0.0005944 -0.0006388 -0.0008065 -0.0007886 -0.0002224 0.0002253 -0.0007110 -0.0006963 0.0003033 -0.0005463 0.0004887 0.0006163 -0.0004488 -0.0000472 -0.0002278 -0.0016954
-0.0003284 -0.0008605 -0.0001642 -0.0006174 -0.0002323 -0.0007946 -0.0000281 0.0003050 0.0005501 0.0017761 -0.0001347 -0.0000480 -0.0002614 0.0009006 0.0003141 0.0002325 -0.0001959 0.0003906 0.0001906 0.0006592 -0.0000965 0.0006453 -0.0006130 -0.0004688 -0.0006109 -0.0004123 -0.0007842 -0.0003761 -0.0002616 0.0007772 -0.0007308 -0.0004290 0.0002711 -0.0005950 0.0004997 0.0010051 -0.0004121 0.0004318 -0.0001764 -0.0011527
-0.0004248 -0.0006034 -0.0002643 -0.0004630 -0.0002396 -0.0003145 -0.0000173 0.0007565 0.0011154 0.0011440 -0.0001101 0.0002729 -0.0000790 0.0008642 0.0003213 0.0003388 -0.0003838 0.0008409 0.0001815 0.0011950 -0.0001412 0.0007980 -0.0005550 0.0000143 -0.0006324 -0.0001337 -0.0007821 0.0000770 -0.0003329 0.0012957 -0.0007400 -0.0000904 0.0002472 -0.0005371 0.0004972 0.0011726 -0.0004041 0.0006593 -0.0001683 -0.0011025
-0.0003442 -0.0002821 -0.0002119 -0.0002037 -0.0002820 -0.0002606 -0.0000500 0.0007069 0.0022623 -0.0020036 -0.0001481 0.0001757 -0.0000182 0.0006658 0.0003391 0.0005024 -0.0002907 0.0006145 0.0001042 0.0008354 -0.0000771 0.0008240 -0.0005486 -0.0002386 -0.0005766 0.0000142 -0.0007934 -0.0001192 -0.0004594 0.0006571 -0.0007167 -0.0002011 0.0002806 -0.0001647 0.0002844 0.0001900 -0.0004936 0.0000810 -0.0002980 -0.0021795
-0.0001790 -0.0002730 -0.0000841 0.0000183 -0.0003908 -0.0008531 -0.0001328 0.0000035 0.0030990 -0.0025522 -0.0002238 -0.0003584 0.0000709 0.0006156 0.0003373 0.0006219 -0.0001060 -0.0000257 0.0000149 -0.0001450 0.0000176 0.0006092 -0.0006612 -0.0010114 -0.0005136 -0.0001525 -0.0008041 -0.0007257 -0.0005436 -0.0004358 -0.0007053 -0.0006352 0.0002900 0.0001522 0.0001048 -0.0006933 -0.0005741 -0.0005333 -0.0003994 -0.0031236
-0.0001398 -0.0004017 -0.0000513 0.0000518 -0.0004722 -0.0012650 -0.0001816 -0.0004503 0.0005329 0.0019035 -0.0002606 -0.0006092 -0.0000999 0.0008276 0.0002880 0.0006210 -0.0000334 -0.0003981 -0.0000616 -0.0004467 0.0000334 0.0004608 -0.0007238 -0.0013802 -0.0004676 -0.0000868 -0.0007694 -0.0007797 -0.0005799 -0.0003971 -0.0006865 -0.0006347 0.0002905 0.0004642 0.0001538 -0.0003311 -0.0005516 -0.0004645 -0.0003565 -0.0030688
-0.0000997 -0.0001645 -0.0000129 0.0002939 -0.0004561 -0.0010434 -0.0001827 -0.0004084 -0.0021568 0.0051609 -0.0002702 -0.0004884 -0.0002031 0.0010773 0.0002756 0.0005740 -0.0001713 -0.0003535 -0.0001250 -0.0002831 0.0000156 0.0004755 -0.0007382 -0.0012239 -0.0004390 0.0002017 -0.0007261 -0.0005044 -0.0006034 0.0000274 -0.0006656 -0.0003776 0.0002747 0.0006934 0.0001500 0.0000801 -0.0005037 -0.0001219 -0.0002910 -0.0026874
-0.0000707 0.0001637 0.0000169 0.0006045 -0.0003913 -0.0005554 -0.0001707 -0.0001630 -0.0011127 0.0043311 -0.0002669 -0.0002562 -0.0003212 0.0013030 0.0003621 0.0006545 -0.0003816 -0.0000847 -0.0001767 0.0000025 -0.0000182 0.0005714 -0.0007791 -0.0007285 -0.0004346 0.0005188 -0.0006780 -0.0001380 -0.0005908 0.0005356 -0.0006531 -0.0000277 0.0002494 0.0008505 0.0000823 0.0003890 -0.0004683 0.0002897 -0.0002319 -0.0022010
-0.0000555 0.0005207 0.0000223 0.0008883 -0.0003513 -0.0000281 -0.0001650 0.0001818 -0.0001179 0.0023987 -0.0002656 -0.0000148 -0.0006882 0.0018414 0.0001751 0.0009264 -0.0005071 0.0001487 -0.0002405 0.0003905 -0.0000615 0.0006874 -0.0007321 -0.0002726 -0.0004419 0.0008573 -0.0006537 0.0003101 -0.0006150 0.0010952 -0.0006419 0.0003760 0.0002294 0.0010017 0.0000345 0.0006754 -0.0004455 0.0007303 -0.0001902 -0.0016830
-0.0000179 0.0008918 0.0000740 0.0010955 -0.0003713 0.0004201 -0.0001794 0.0005029 -0.0008496 0.0029943 -0.0002849 0.0001560 -0.0008667 0.0021642 0.0000497 0.0010215 -0.0004557 0.0002130 -0.0002532 0.0006493 -0.0000826 0.0006888 -0.0006947 0.0000496 -0.0004534 0.0009993 -0.0006490 0.0005516 -0.0006953 0.0011165 -0.0006150 0.0005697 0.0002397 0.0010306 -0.0000690 0.0003524 -0.0004442 0.0006967 -0.0002002 -0.0018680
0.0000083 0.0009081 0.0000756 0.0009615 -0.0004153 0.0002908 -0.0002090 0.0003114 0.0002244 0.0020002 -0.0003160 -0.0000699 -0.0001571 0.0012794 0.0001635 0.0006398 -0.0004324 -0.0000017 -0.0002559 0.0002713 -0.0000396 0.0005691 -0.0007080 -0.0000585 -0.0004501 0.0007410 -0.0006850 0.0002769 -0.0007829 0.0004914 -0.0006113 0.0002775 0.0002551 0.0009011 -0.0001464 -0.0004350 -0.0004689 0.0002020 -0.0002440 -0.0025758
-0.0000607 0.0005457 0.0000395 0.0006897 -0.0004850 -0.0001818 -0.0002350 -0.0001202 0.0010425 0.0007425 -0.0003267 -0.0003998 0.0001289 0.0009130 0.0001950 0.0005973 -0.0005008 -0.0000746 -0.0003343 -0.0000396 0.0000202 0.0005437 -0.0007462 -0.0004895 -0.0004423 0.0005013 -0.0007468 -0.0000444 -0.0008099 0.0002043 -0.0006543 -0.0000966 0.0002465 0.0009412 -0.0000789 -0.0005652 -0.0004946 -0.0000256 -0.0002684 -0.0028113
-0.0001332 0.0003643 0.0000572 0.0006195 -0.0005363 -0.0002725 -0.0002514 -0.0001855 0.0001170 0.0031698 -0.0003291 -0.0004001 -0.0000723 0.0010766 0.0002304 0.0006924 -0.0004077 -0.0001015 -0.0003868 0.0001300 0.0000101 0.0005564 -0.0008109 -0.0005882 -0.0004275 0.0006254 -0.0007665 0.0000499 -0.0008219 0.0004671 -0.0006660 -0.0000420 0.0002355 0.0010979 0.0000088 -0.0001393 -0.0004742 0.0001595 -0.0002284 -0.0025586
-0.0001336 0.0005532 0.0000456 0.0008085 -0.0005386 -0.0000313 -0.0002515 -0.0000013 -0.0008519 0.0034672 -0.0003327 -0.0002431 -0.0003563 0.0012827 0.0002371 0.0005682 -0.0003955 -0.0000410 -0.0003668 0.0003158 -0.0000329 0.0005687 -0.0008245 -0.0002730 -0.0003973 0.0009496 -0.0007595 0.0003739 -0.0008929 0.0009057 -0.0006389 0.0002785 0.0002201 0.0012240 0.0000141 0.0002131 -0.0004341 0.0005130 -0.0001671 -0.0021137
-0.0001283 0.0008997 0.0000465 0.0011275 -0.0005447 0.0003421 -0.0002465 0.0002921 -0.0013674 0.0043600 -0.0003361 -0.0000257 -0.0007905 0.0020470 0.0002977 0.0006892 -0.0004032 0.0000992 -0.0003922 0.0005729 -0.0000702 0.0006109 -0.0007976 0.0000362 -0.0003806 0.0012483 -0.0007574 0.0006489 -0.0009388 0.0011424 -0.0006100 0.0005570 0.0002302 0.0013033 -0.0000205 0.0001625 -0.0004202 0.0005877 -0.0001591 -0.0021359
-0.0001095 0.0010166 0.0000445 0.0011179 -0.0005657 0.0003614 -0.0002598 0.0002232 -0.0021204 0.0037458 -0.0003603 -0.0001557 -0.0007429 0.0019375 0.0003128 0.0007178 -0.0002989 -0.0001116 -0.0004125 0.0003417 -0.0000514 0.0005271 -0.0008145 0.0000316 -0.0003734 0.0010879 -0.0008021 0.0004416 -0.0009598 0.0006378 -0.0006079 0.0003524 0.0002438 0.0012002 -0.0000750 -0.0004609 -0.0004383 0.0001850 -0.0001959 -0.0027273
-0.0001430 0.0006975 0.0000605 0.0008054 -0.0006323 -0.0000673 -0.0002886 -0.0001864 -0.0038854 0.0036839 -0.0003739 -0.0005063 -0.0006613 0.0015254 0.0002158 0.0005934 -0.0002799 -0.0002853 -0.0004060 -0.0000785 0.0000065 0.0004354 -0.0008565 -0.0004658 -0.0003766 0.0006994 -0.0008792 -0.0000408 -0.0009739 0.0001174 -0.0006548 -0.0001380 0.0002353 0.0011553 -0.0000683 -0.0007304 -0.0004732 -0.0001930 -0.0002330 -0.0031599
-0.0001885 0.0004623 0.0000595 0.0006997 -0.0007101 -0.0003328 -0.0003116 -0.0003735 -0.0004794 0.0018444 -0.0003779 -0.0005920 -0.0004682 0.0013507 0.0001325 0.0005718 -0.0004817 -0.0001603 -0.0005064 0.0000558 -0.0000031 0.0003853 -0.0009066 -0.0008476 -0.0003676 0.0006776 -0.0009139 -0.0001204 -0.0009593 0.0002295 -0.0006730 -0.0002166 0.0002249 0.0012654 0.0000228 -0.0003333 -0.0004607 -0.0001447 -0.0002033 -0.0030650
-0.0001865 0.0006194 0.0000630 0.0008593 -0.0007241 -0.0001765 -0.0003162 -0.0002686 0.0013393 0.0006747 -0.0003826 -0.0004584 -0.0005588 0.0014845 0.0001452 0.0006768 -0.0006248 0.0000878 -0.0005604 0.0003195 -0.0000515 0.0003771 -0.0010083 -0.0005516 -0.0003360 0.0009201 -0.0008997 0.0001233 -0.0009068 0.0005404 -0.0006424 0.0000331 0.0002111 0.0013541 0.0000651 0.0000241 -0.0004099 0.0001665 -0.0001408 -0.0026681
-0.0001762 0.0009111 0.0000920 0.0011519 -0.0007111 0.0001877 -0.0003121 -0.0000141 -0.0010857 0.0032155 -0.0003866 -0.0002239 -0.0009679 0.0019337 0.0000184 0.0009701 -0.0006895 0.0003062 -0.0005932 0.0005715 -0.0000918 0.0004830 -0.0010245 -0.0001141 -0.0003111 0.0012503 -0.0008654 0.0004223 -0.0008983 0.0009275 -0.0006064 0.0003589 0.0001944 0.0014541 0.0000468 0.0002963 -0.0003790 0.0005279 -0.0000942 -0.0022522
-0.0001554 0.0012525 0.0000943 0.0014831 -0.0007239 0.0005818 -0.0003175 0.0002945 -0.0028683 0.0054292 -0.0004027 0.0000150 -0.0008619 0.0018044 0.0000206 0.0010298 -0.0007316 0.0004666 -0.0006514 0.0008519 -0.0001355 0.0006280 -0.0010190 0.0003230 -0.0003022 0.0016040 -0.0008488 0.0007571 -0.0009709 0.0013841 -0.0005780 0.0007052 0.0001754 0.0015745 0.0000145 0.0005412 -0.0003624 0.0008549 -0.0000641 -0.0019121
-0.0001502 0.0015717 0.0001158 0.0016349 -0.0007488 0.0007971 -0.0003400 0.0004258 -0.0023047 0.0036811 -0.0004255 0.0000465 -0.0002547 0.0011979 0.0000905 0.0009828 -0.0006273 0.0003395 -0.0006608 0.0008440 -0.0001527 0.0005818 -0.0010294 0.0005248 -0.0003109 0.0015633 -0.0008633 0.0007494 -0.0010251 0.0010594 -0.0005522 0.0006711 0.0001952 0.0014234 -0.0000416 -0.0001028 -0.0003705 0.0006117 -0.0000991 -0.0022891
-0.0001669 0.0013848 0.0001198 0.0013803 -0.0007884 0.0004814 -0.0003647 0.0001254 0.0000591 -0.0001860 -0.0004480 -0.0002622 -0.0002533 0.0012575 0.0000252 0.0008187 -0.0005533 -0.0000904 -0.0006314 0.0003343 -0.0001002 0.0004782 -0.0010103 0.0000171 -0.0003254 0.0010908 -0.0009242 0.0002231 -0.0009993 0.0001445 -0.0005701 0.0001007 0.0002260 0.0011795 -0.0000483 -0.0009485 -0.0004111 -0.0000392 -0.0001685 -0.0030553
-0.0002337 0.0008299 0.0000718 0.0010098 -0.0008509 -0.0000279 -0.0003872 -0.0002348 0.0010805 -0.0007012 -0.0004645 -0.0005040 -0.0006040 0.0015086 0.0000729 0.0006010 -0.0006621 0.0000302 -0.0006093 0.0001166 -0.0000655 0.0004798 -0.0010956 -0.0005432 -0.0003273 0.0008153 -0.0009671 -0.0001446 -0.0009775 -0.0000774 -0.0006148 -0.0002846 0.0002374 0.0012292 0.0000442 -0.0007561 -0.0004168 -0.0002310 -0.0001831 -0.0031857
-0.0002707 0.0006814 0.0000653 0.0009173 -0.0008713 -0.0000765 -0.0003993 -0.0002560 -0.0002496 0.0015254 -0.0004673 -0.0004603 -0.0009701 0.0015605 0.0000281 0.0008149 -0.0008084 0.0001770 -0.0006219 0.0002851 -0.0000991 0.0004571 -0.0011407 -0.0005575 -0.0003071 0.0009234 -0.0009229 -0.0000352 -0.0009791 0.0002585 -0.0006019 -0.0001607 0.0002455 0.0013342 0.0001386 -0.0002786 -0.0003621 0.0000213 -0.0001377 -0.0028169
-0.0002439 0.0009103 0.0001042 0.0010375 -0.0008452 0.0002301 -0.0003882 -0.0000385 -0.0009298 0.0038363 -0.0004581 -0.0002819 -0.0010381 0.0018317 -0.0000177 0.0009366 -0.0007807 0.0000645 -0.0006280 0.0004557 -0.0001467 0.0005102 -0.0011349 -0.0001774 -0.0002800 0.0012140 -0.0008662 0.0002592 -0.0009489 0.0006949 -0.0005550 0.0001488 0.0002305 0.0013971 0.0001661 0.0000520 -0.0003131 0.0003803 -0.0000782 -0.0023212
-0.0002191 0.0012115 0.0001173 0.0013056 -0.0008248 0.0005871 -0.0003812 0.0002733 -0.0002843 0.0037056 -0.0004602 -0.0000534 -0.0006347 0.0016524 0.0000501 0.0009240 -0.0007922 0.0002663 -0.0006693 0.0007772 -0.0001881 0.0006152 -0.0011755 0.0002896 -0.0002644 0.0015318 -0.0008247 0.0005740 -0.0009311 0.0010821 -0.0005262 0.0004949 0.0002079 0.0014904 0.0001454 0.0003058 -0.0002917 0.0007369 -0.0000347 -0.0018770
-0.0002142 0.0015404 0.0001141 0.0015661 -0.0008299 0.0009469 -0.0003899 0.0005975 0.0001382 0.0021987 -0.0004728 0.0001864 -0.0007028 0.0016533 0.0000321 0.0011417 -0.0008355 0.0005646 -0.0007702 0.0011624 -0.0002259 0.0006910 -0.0012102 0.0006060 -0.0002693 0.0017786 -0.0008003 0.0008130 -0.0009690 0.0012612 -0.0005079 0.0007586 0.0002149 0.0015683 0.0001054 0.0002908 -0.0002858 0.0008230 -0.0000547 -0.0019042
-0.0001969 0.0016221 0.0000953 0.0015323 -0.0008661 0.0009387 -0.0004148 0.0005392 -0.0010015 0.0004127 -0.0004932 0.0000433 -0.0008911 0.0016923 -0.0000070 0.0010020 -0.0009519 0.0007377 -0.0007636 0.0009124 -0.0002193 0.0006007 -0.0010667 0.0005396 -0.0002816 0.0015586 -0.0008274 0.0006081 -0.0010160 0.0007044 -0.0004877 0.0005518 0.0002310 0.0014046 0.0000668 -0.0004293 -0.0002940 0.0004030 -0.0000922 -0.0024611
-0.0001852 0.0012624 0.0000791 0.0011759 -0.0008983 0.0005032 -0.0004375 0.0001399 -0.0007756 -0.0010844 -0.0005058 -0.0003236 -0.0009768 0.0017564 0.0000660 0.0008484 -0.0009105 0.0003488 -0.0006369 0.0003121 -0.0001593 0.0005645 -0.0010026 0.0001181 -0.0002794 0.0011130 -0.0008769 0.0001172 -0.0009686 0.0000241 -0.0005175 0.0000118 0.0002362 0.0012975 0.0000801 -0.0008527 -0.0003138 -0.0000257 -0.0001189 -0.0028756
-0.0002334 0.0009040 0.0000802 0.0009844 -0.0009241 0.0002135 -0.0004485 -0.0000452 -0.0003649 -0.0002219 -0.0005090 -0.0003976 -0.0008798 0.0018112 0.0000463 0.0008924 -0.0007176 -0.0000235 -0.0005628 0.0002343 -0.0001527 0.0006097 -0.0011279 -0.0002001 -0.0002670 0.0010240 -0.0008749 -0.0000469 -0.0008861 0.0000403 -0.0005432 -0.0001811 0.0002433 0.0014047 0.0001648 -0.0004696 -0.0002982 -0.0000376 -0.0001238 -0.0027891
-0.0002377 0.0008921 0.0000963 0.0010884 -0.0009204 0.0002869 -0.0004514 0.0000380 -0.0007498 0.0003974 -0.0005120 -0.0003024 -0.0004927 0.0012717 -0.0000008 0.0008004 -0.0007391 0.0000879 -0.0005916 0.0004492 -0.0001997 0.0006047 -0.0011644 -0.0001184 -0.0002417 0.0012081 -0.0008260 0.0001148 -0.0008451 0.0003466 -0.0005101 0.0000215 0.0002399 0.0014860 0.0002254 -0.0000774 -0.0002488 0.0002271 -0.0000748 -0.0024006
-0.0001932 0.0011275 0.0001022 0.0013073 -0.0008837 0.0005512 -0.0004490 0.0002700 -0.0003181 0.0002250 -0.0005114 -0.0001174 -0.0007616 0.0014562 0.0001343 0.0007280 -0.0007944 0.0002510 -0.0006505 0.0007129 -0.0002419 0.0006769 -0.0011937 0.0002666 -0.0002198 0.0015053 -0.0007816 0.0003737 -0.0008202 0.0006890 -0.0004752 0.0003427 0.0002236 0.0015935 0.0002027 0.0002392 -0.0002199 0.0005712 -0.0000346 -0.0019757
-0.0001752 0.0014207 0.0001189 0.0015604 -0.0008679 0.0008274 -0.0004558 0.0005298 -0.0024156 0.0032363 -0.0005190 0.0000420 -0.0011472 0.0018796 0.0001773 0.0007113 -0.0007954 0.0003254 -0.0006344 0.0008606 -0.0002779 0.0006588 -0.0011510 0.0004489 -0.0002232 0.0016131 -0.0007237 0.0004274 -0.0008440 0.0006580 -0.0004395 0.0004819 0.0002373 0.0015674 0.0001815 -0.0000609 -0.0002133 0.0005015 -0.0000501 -0.0021335
-0.0001563 0.0013823 0.0001371 0.0014393 -0.0008725 0.0006824 -0.0004772 0.0003692 -0.0013609 0.0015873 -0.0005381 -0.0001424 -0.0011084 0.0018024 0.0001277 0.0004594 -0.0007238 0.0000555 -0.0006102 0.0005085 -0.0002590 0.0005571 -0.0010930 0.0001960 -0.0002191 0.0013198 -0.0007297 0.0000448 -0.0008417 0.0000132 -0.0004324 0.0001441 0.0002656 0.0014029 0.0001732 -0.0007621 -0.0002274 -0.0000452 -0.0000922 -0.0028200
-0.0001620 0.0009234 0.0001596 0.0010273 -0.0008987 0.0001297 -0.0005023 -0.0000838 0.0002971 -0.0007451 -0.0005437 -0.0004560 -0.0010558 0.0017174 -0.0000723 0.0005000 -0.0008284 -0.0000995 -0.0005822 0.0000568 -0.0002084 0.0005576 -0.0011622 -0.0003049 -0.0002115 0.0009653 -0.0007954 -0.0004252 -0.0007955 -0.0004395 -0.0004787 -0.0003413 0.0002851 0.0013960 0.0002229 -0.0007995 -0.0002364 -0.0004082 -0.0001229 -0.0031524
-0.0001923 0.0006163 0.0001446 0.0009051 -0.0009025 -0.0001356 -0.0005108 -0.0002412 -0.0010718 0.0007469 -0.0005385 -0.0005040 -0.0009936 0.0016319 -0.0000138 0.0005093 -0.0008602 -0.0002075 -0.0005319 0.0000486 -0.0002241 0.0005455 -0.0012445 -0.0005871 -0.0001990 0.0009332 -0.0007715 -0.0005087 -0.0007417 -0.0002854 -0.0004808 -0.0004142 0.0003089 0.0014751 0.0003410 -0.0003688 -0.0002004 -0.0003318 -0.0000925 -0.0029739
-0.0001597 0.0007168 0.0001689 0.0009979 -0.0008501 0.0000108 -0.0004975 -0.0001219 -0.0025967 0.0027440 -0.0005291 -0.0003846 -0.0008078 0.0013437 -0.0000529 0.0006723 -0.0007931 -0.0002222 -0.0005353 0.0002102 -0.0002688 0.0005228 -0.0012859 -0.0003339 -0.0001603 0.0011412 -0.0006935 -0.0002909 -0.0006512 0.0000446 -0.0004249 -0.0001639 0.0003138 0.0015185 0.0003955 -0.0000077 -0.0001454 -0.0000269 -0.0000279 -0.0025411
-0.0000957 0.0009876 0.0002116 0.0012048 -0.0007957 0.0002900 -0.0004800 0.0001279 -0.0012771 0.0016374 -0.0005202 -0.0001787 -0.0004071 0.0009206 -0.0002912 0.0010319 -0.0008524 -0.0000079 -0.0005657 0.0004695 -0.0003032 0.0006064 -0.0011956 0.0000232 -0.0001296 0.0014329 -0.0006513 0.0000221 -0.0006271 0.0004505 -0.0003844 0.0001637 0.0003011 0.0016015 0.0003975 0.0002455 -0.0001122 0.0003298 0.0000198 -0.0020854
-0.0000615 0.0012589 0.0001865 0.0014857 -0.0007682 0.0005931 -0.0004757 0.0004258 -0.0004208 0.0006247 -0.0005247 0.0000579 -0.0007393 0.0012279 0.0000402 0.0008428 -0.0007988 0.0001764 -0.0005419 0.0007204 -0.0003465 0.0007150 -0.0012101 0.0004399 -0.0001245 0.0017383 -0.0006116 0.0003217 -0.0006243 0.0008604 -0.0003579 0.0005157 0.0002773 0.0017067 0.0003696 0.0005330 -0.0001060 0.0006938 0.0000447 -0.0016455
-0.0000565 0.0015302 0.0001620 0.0017431 -0.0007639 0.0008391 -0.0004869 0.0006484 -0.0003556 0.0006950 -0.0005307 0.0001611 -0.0011858 0.0014946 0.0002151 0.0008936 -0.0006668 0.0002421 -0.0004899 0.0008141 -0.0003780 0.0006488 -0.0013130 0.0005663 -0.0001463 0.0017412 -0.0005754 0.0003261 -0.0006358 0.0006224 -0.0003302 0.0005712 0.0002980 0.0016233 0.0003247 0.0001188 -0.0001198 0.0005191 0.0000115 -0.0019572
-0.0000338 0.0013934 0.0001956 0.0014898 -0.0007695 0.0005932 -0.0005070 0.0004115 -0.0012907 0.0025559 -0.0005457 -0.0001097 -0.0013625 0.0017374 0.0001481 0.0005466 -0.0006407 -0.0000719 -0.0004976 0.0003682 -0.0003472 0.0005245 -0.0011863 0.0002288 -0.0001499 0.0013308 -0.0005824 -0.0001125 -0.0006629 -0.0001979 -0.0003244 0.0001385 0.0003402 0.0014156 0.0003414 -0.0007790 -0.0001334 -0.0001196 -0.0000468 -0.0027566
-0.0000090 0.0008624 0.0002120 0.0010216 -0.0007761 0.0000344 -0.0005192 -0.0000319 -0.0008518 0.0022409 -0.0005579 -0.0004110 -0.0011472 0.0014940 0.0001261 0.0002844 -0.0007543 -0.0002170 -0.0004517 -0.0001030 -0.0002868 0.0005622 -0.0011484 -0.0002235 -0.0001409 0.0009874 -0.0006197 -0.0005396 -0.0006243 -0.0005546 -0.0003588 -0.0003254 0.0003638 0.0014170 0.0004229 -0.0008113 -0.0001390 -0.0004217 -0.0000852 -0.0030094
-0.0000245 0.0005952 0.0001827 0.0009519 -0.0007586 -0.0001757 -0.0005210 -0.0001415 0.0000464 0.0004520 -0.0005576 -0.0004244 -0.0007387 0.0010121 0.0002381 0.0001317 -0.0007031 -0.0003451 -0.0004051 -0.0000518 -0.0002835 0.0005579 -0.0011524 -0.0005452 -0.0001319 0.0009710 -0.0005956 -0.0005832 -0.0005255 -0.0003853 -0.0003621 -0.0003645 0.0003834 0.0014990 0.0005000 -0.0003200 -0.0001156 -0.0003091 -0.0000652 -0.0027909
-0.0000058 0.0006908 0.0001827 0.0010729 -0.0007030 -0.0000253 -0.0005079 -0.0000055 0.0005337 0.0006044 -0.0005410 -0.0003029 -0.0006987 0.0010584 0.0000998 0.0003209 -0.0006410 -0.0003283 -0.0004397 0.0001579 -0.0003099 0.0005369 -0.0011348 -0.0003638 -0.0001052 0.0011762 -0.0005278 -0.0003819 -0.0004906 -0.0000350 -0.0003166 -0.0000904 0.0003791 0.0015598 0.0005074 0.0000696 -0.0000786 -0.0000166 -0.0000100 -0.0024085
0.0000036 0.0009770 0.0001997 0.0013032 -0.0006602 0.0002554 -0.0004871 0.0002458 -0.0010559 0.0022367 -0.0005295 -0.0001012 -0.0009720 0.0011361 -0.0000683 0.0008039 -0.0007473 0.0000885 -0.0005158 0.0004912 -0.0003344 0.0005981 -0.0011544 0.0000273 -0.0000889 0.0014693 -0.0004931 -0.0001023 -0.0005179 0.0003485 -0.0002853 0.0002533 0.0003610 0.0016401 0.0004924 0.0003317 -0.0000698 0.0003066 0.0000317 -0.0020392
0.0000151 0.0012625 0.0002470 0.0015345 -0.0006505 0.0005545 -0.0004794 0.0005321 -0.0016057 0.0013286 -0.0005348 0.0001182 -0.0012412 0.0014053 -0.0001807 0.0010780 -0.0007253 0.0003252 -0.0005533 0.0007647 -0.0003642 0.0006859 -0.0010849 0.0003477 -0.0000931 0.0017597 -0.0004788 0.0001980 -0.0005368 0.0007196 -0.0002769 0.0005957 0.0003454 0.0017365 0.0004847 0.0005213 -0.0000701 0.0005494 0.0000501 -0.0017931
0.0000552 0.0014245 0.0002440 0.0016573 -0.0006511 0.0006579 -0.0004880 0.0006084 0.0004554 -0.0010866 -0.0005379 0.0001055 -0.0012044 0.0016260 -0.0002074 0.0011343 -0.0005281 0.0000406 -0.0004916 0.0005760 -0.0003711 0.0005930 -0.0009906 0.0003356 -0.0001124 0.0016377 -0.0004820 0.0001281 -0.0005681 0.0003710 -0.0002656 0.0005278 0.0003634 0.0015938 0.0004565 -0.0000957 -0.0000839 0.0002546 0.0000156 -0.0022273
0.0000508 0.0011949 0.0001868 0.0013749 -0.0006617 0.0003185 -0.0004968 0.0003106 -0.0004519 0.0024762 -0.0005458 -0.0001874 -0.0011782 0.0015834 0.0001421 0.0004721 -0.0004680 -0.0003739 -0.0004298 0.0000078 -0.0003171 0.0004652 -0.0009344 -0.0001244 -0.0001111 0.0011592 -0.0004959 -0.0003999 -0.0005580 -0.0004247 -0.0002802 0.0000004 0.0003979 0.0013879 0.0004807 -0.0008417 -0.0001087 -0.0003175 -0.0000491 -0.0028697
0.0000167 0.0007301 0.0002124 0.0009978 -0.0006861 -0.0000821 -0.0004946 0.0000145 0.0006767 0.0031777 -0.0005471 -0.0003802 -0.0009435 0.0011937 0.0001610 0.0002471 -0.0005654 -0.0004069 -0.0004066 -0.0002641 -0.0002688 0.0004824 -0.0010338 -0.0005239 -0.0000965 0.0009109 -0.0005227 -0.0007247 -0.0005100 -0.0005842 -0.0003172 -0.0003414 0.0004202 0.0014329 0.0005659 -0.0006232 -0.0001098 -0.0004864 -0.0000713 -0.0029704
-0.0000210 0.0006022 0.0002189 0.0009852 -0.0006695 -0.0001468 -0.0004834 -0.0000093 0.0012166 0.0010665 -0.0005353 -0.0003478 -0.0007712 0.0009888 -0.0000569 0.0006671 -0.0005805 -0.0003216 -0.0003642 -0.0001434 -0.0002774 0.0004615 -0.0010856 -0.0005683 -0.0000710 0.0009836 -0.0005055 -0.0006161 -0.0004814 -0.0003086 -0.0003028 -0.0002569 0.0004351 0.0015075 0.0006409 -0.0001883 -0.0000766 -0.0003091 -0.0000316 -0.0026899
0.0000177 0.0007491 0.0002324 0.0011231 -0.0006095 0.0000415 -0.0004559 0.0001710 0.0001971 0.0010294 -0.0005190 -0.0002021 -0.0005476 0.0007674 0.0000496 0.0007283 -0.0004786 -0.0002339 -0.0003556 0.0000343 -0.0002920 0.0004670 -0.0009487 -0.0004187 -0.0000319 0.0012370 -0.0004412 -0.0003554 -0.0004602 0.0000654 -0.0002597 0.0000408 0.0004331 0.0015816 0.0006731 0.0001001 -0.0000469 -0.0000014 0.0000198 -0.0022686
0.0000808 0.0009971 0.0002716 0.0013926 -0.0005755 0.0003390 -0.0004333 0.0004531 0.0001324 0.0002755 -0.0005115 -0.0000006 -0.0005498 0.0010073 0.0001360 0.0007944 -0.0004504 -0.0000407 -0.0004000 0.0002884 -0.0003054 0.0005468 -0.0009046 -0.0000490 -0.0000136 0.0015361 -0.0004154 -0.0000783 -0.0004564 0.0004447 -0.0002354 0.0003720 0.0004141 0.0016852 0.0006444 0.0003341 -0.0000425 0.0003134 0.0000454 -0.0018768
0.0000927 0.0013004 0.0002542 0.0016690 -0.0005751 0.0006379 -0.0004262 0.0007496 -0.0006291 0.0002981 -0.0005123 0.0002173 -0.0005750 0.0010677 0.0001902 0.0007935 -0.0004360 0.0001601 -0.0003907 0.0005519 -0.0003291 0.0006226 -0.0009772 0.0002585 -0.0000190 0.0017845 -0.0004095 0.0001454 -0.0004715 0.0006450 -0.0002204 0.0006327 0.0004225 0.0017541 0.0006124 0.0003330 -0.0000512 0.0003645 0.0000261 -0.0019344
0.0001105 0.0013563 0.0002684 0.0016040 -0.0005986 0.0005813 -0.0004383 0.0006908 -0.0011264 0.0025623 -0.0005281 0.0000482 -0.0007119 0.0008068 0.0001885 0.0006103 -0.0004740 0.0000625 -0.0003816 0.0002591 -0.0003153 0.0004936 -0.0009637 0.0001180 -0.0000246 0.0015287 -0.0004102 -0.0001096 -0.0005056 0.0000407 -0.0002070 0.0003931 0.0004443 0.0015395 0.0006120 -0.0004820 -0.0000678 -0.0001247 -0.0000165 -0.0026029
0.0000989 0.0009739 0.0002637 0.0012103 -0.0006076 0.0000580 -0.0004493 0.0002437 0.0007499 0.0010603 -0.0005344 -0.0003726 -0.0008010 0.0009162 0.0001287 0.0004643 -0.0005997 -0.0002297 -0.0003669 -0.0004061 -0.0002372 0.0003334 -0.0009216 -0.0005136 -0.0000040 0.0009605 -0.0004459 -0.0007319 -0.0005165 -0.0008115 -0.0002416 -0.0002375 0.0004518 0.0013470 0.0006541 -0.0010655 -0.0000877 -0.0006753 -0.0000554 -0.0031645
0.0000524 0.0005171 0.0002448 0.0009415 -0.0006134 -0.0003661 -0.0004399 -0.0000656 0.0014309 0.0008913 -0.0005251 -0.0005138 -0.0008309 0.0011398 0.0002186 0.0002881 -0.0005273 -0.0004183 -0.0003621 -0.0005562 -0.0001911 0.0002815 -0.0009242 -0.0011016 0.0000176 0.0007387 -0.0004657 -0.0010308 -0.0004935 -0.0008821 -0.0002841 -0.0005514 0.0004642 0.0014014 0.0007440 -0.0007138 -0.0000772 -0.0007834 -0.0000595 -0.0032033
0.0000484 0.0004041 0.0002147 0.0009708 -0.0005950 -0.0003724 -0.0004219 -0.0000783 0.0003972 0.0019684 -0.0005070 -0.0004709 -0.0007403 0.0008280 0.0001157 0.0003370 -0.0003751 -0.0005648 -0.0003708 -0.0003793 -0.0002041 0.0002122 -0.0009019 -0.0011350 0.0000438 0.0008332 -0.0004286 -0.0008949 -0.0004499 -0.0005454 -0.0002564 -0.0004304 0.0004665 0.0014327 0.0008260 -0.0003318 -0.0000266 -0.0005610 0.0000088 -0.0028582
0.0001009 0.0005871 0.0002664 0.0010916 -0.0005339 -0.0001311 -0.0003946 0.0001038 -0.0002672 0.0011825 -0.0004848 -0.0003225 -0.0004622 0.0004395 -0.0000994 0.0006773 -0.0003921 -0.0004192 -0.0003781 -0.0001712 -0.0002196 0.0002230 -0.0008551 -0.0007956 0.0000776 0.0010715 -0.0003798 -0.0005839 -0.0004156 -0.0001525 -0.0002140 -0.0001288 0.0004564 0.0014868 0.0008639 -0.0000715 0.0000122 -0.0002128 0.0000862 -0.0023992
0.0001225 0.0008899 0.0003057 0.0013107 -0.0004975 0.0001670 -0.0003752 0.0003565 -0.0009812 0.0016599 -0.0004756 -0.0001096 -0.0008662 0.0009763 0.0000064 0.0008765 -0.0003883 -0.0000807 -0.0004050 0.0001335 -0.0002391 0.0002855 -0.0008167 -0.0004182 0.0000844 0.0013208 -0.0003381 -0.0002656 -0.0004024 0.0002480 -0.0001922 0.0001921 0.0004391 0.0015919 0.0008323 0.0002104 0.0000245 0.0001473 0.0001287 -0.0019567
0.0001312 0.0011812 0.0003011 0.0015509 -0.0004875 0.0004763 -0.0003724 0.0006277 -0.0024844 0.0032673 -0.0004689 0.0001145 -0.0009755 0.0012509 -0.0001576 0.0010932 -0.0003834 0.0001001 -0.0004422 0.0004434 -0.0002714 0.0003484 -0.0008208 -0.0001586 0.0000646 0.0015359 -0.0003201 0.0000073 -0.0004324 0.0005909 -0.0001777 0.0004607 0.0004466 0.0016640 0.0008085 0.0002380 0.0000201 0.0002371 0.0001156 -0.0019311
0.0001554 0.0012453 0.0003061 0.0015160 -0.0004998 0.0004572 -0.0003899 0.0005600 -0.0011276 0.0011457 -0.0004852 0.0000021 -0.0007179 0.0008695 -0.0002740 0.0010008 -0.0005558 0.0001649 -0.0004400 0.0002574 -0.0002658 0.0002114 -0.0007816 -0.0002089 0.0000468 0.0012667 -0.0003135 -0.0001879 -0.0004568 0.0000421 -0.0001582 0.0002413 0.0004636 0.0014582 0.0007896 -0.0005329 0.0000094 -0.0002088 0.0000690 -0.0025220
0.0001522 0.0008874 0.0002544 0.0011284 -0.0005140 0.0000036 -0.0004009 0.0001208 -0.0011092 0.0015255 -0.0004933 -0.0003857 -0.0007174 0.0007035 -0.0001531 0.0006445 -0.0006891 -0.0000499 -0.0004069 -0.0003671 -0.0001958 0.0000517 -0.0007260 -0.0006881 0.0000655 0.0007007 -0.0003295 -0.0007476 -0.0004300 -0.0008331 -0.0001731 -0.0003526 0.0004647 0.0012455 0.0008063 -0.0011334 0.0000016 -0.0007158 0.0000387 -0.0030347
0.0001287 0.0004546 0.0002294 0.0008582 -0.0005189 -0.0003602 -0.0003950 -0.0001557 -0.0013283 0.0033496 -0.0004819 -0.0005531 -0.0007579 0.0008058 -0.0001272 0.0005072 -0.0005755 -0.0005035 -0.0003718 -0.0005859 -0.0001522 0.0000150 -0.0006945 -0.0011706 0.0000895 0.0004804 -0.0003342 -0.0010164 -0.0003860 -0.0008839 -0.0002007 -0.0006636 0.0004715 0.0012522 0.0008944 -0.0008604 -0.0000005 -0.0008465 0.0000303 -0.0030914
0.0001223 0.0003560 0.0002693 0.0008645 -0.0004878 -0.0004107 -0.0003861 -0.0001772 -0.0017233 0.0043392 -0.0004718 -0.0005073 -0.0008520 0.0010455 0.0000378 0.0003918 -0.0003840 -0.0006590 -0.0003366 -0.0004503 -0.0001567 -0.0000482 -0.0006602 -0.0012905 0.0001087 0.0005581 -0.0002938 -0.0009279 -0.0003219 -0.0006438 -0.0001755 -0.0005954 0.0004704 0.0012713 0.0009676 -0.0004901 0.0000196 -0.0006878 0.0000697 -0.0028363
0.0001452 0.0005065 0.0002675 0.0010415 -0.0004468 -0.0002254 -0.0003645 -0.0000391 -0.0015245 0.0045122 -0.0004466 -0.0003757 -0.0007388 0.0011482 0.0001242 0.0003484 -0.0002973 -0.0005730 -0.0003024 -0.0002909 -0.0001674 -0.0000290 -0.0006135 -0.0010390 0.0001385 0.0007886 -0.0002628 -0.0006577 -0.0002682 -0.0003495 -0.0001437 -0.0003189 0.0004615 0.0013326 0.0010025 -0.0002170 0.0000548 -0.0003662 0.0001334 -0.0024082
0.0001501 0.0007578 0.0002728 0.0012427 -0.0004218 0.0000839 -0.0003423 0.0002164 -0.0015667 0.0023756 -0.0004264 -0.0001818 -0.0007860 0.0009686 0.0001109 0.0005117 -0.0001570 -0.0004388 -0.0002857 -0.0000171 -0.0001858 0.0000565 -0.0005830 -0.0006302 0.0001389 0.0010267 -0.0002325 -0.0003199 -0.0003022 0.0001054 -0.0001300 0.0000221 0.0004566 0.0013992 0.0010009 0.0000318 0.0000907 -0.0000378 0.0002200 -0.0018533
0.0001146 0.0008842 0.0002662 0.0012444 -0.0003370 0.0004655 -0.0002991 0.0004087 -0.0019271 0.0019293 -0.0004068 -0.0001309 -0.0007887 0.0008341 -0.0000635 0.0007501 -0.0002758 -0.0001058 -0.0002426 0.0000250 -0.0001712 0.0000384 -0.0004577 -0.0003807 0.0001048 0.0008342 -0.0002093 -0.0002454 -0.0003207 0.0000067 -0.0000938 0.0001106 0.0005038 0.0011651 0.0010215 -0.0004796 0.0001305 -0.0002444 0.0003016 -0.0018064
-0.0000061 0.0004296 0.0001387 0.0006975 -0.0001805 0.0006205 -0.0002188 0.0002839 -0.0017525 0.0014574 -0.0003716 -0.0003931 -0.0005909 0.0007606 -0.0001161 0.0002899 -0.0004304 -0.0002482 -0.0001656 -0.0004299 -0.0000752 0.0000383 -0.0003428 -0.0005595 0.0000689 0.0001198 -0.0002632 -0.0007563 -0.0002095 -0.0007273 -0.0000987 -0.0003770 0.0005688 0.0007759 0.0010842 -0.0013557 0.0001294 -0.0009401 0.0002833 -0.0024066
